{
  "AcquisitionMatrixPE": 64,
  "AcquisitionNumber": 1,
  "AcquisitionTime": "14:46:33.762500",
  "BandwidthPerPixelPhaseEncode": 31.25,
  "BaseResolution": 64,
  "CoilCombinationMethod": "Sum of Squares",
  "CoilString": "C:HEA;HEP",
  "ConversionSoftware": "dcm2niix",
  "ConversionSoftwareVersion": "v1.0.20211006",
  "DerivedVendorReportedEchoSpacing": 0.0005,
  "DeviceSerialNumber": "35377",
  "DwellTime": 3.4e-06,
  "EchoTime": 0.03,
  "EffectiveEchoSpacing": 0.0005,
  "FlipAngle": 90,
  "ImageOrientationPatientDICOM": [0.999877, 0.0157096, 6.84068e-05, -0.0157073, 0.999631, 0.0221816],
  "ImageOrientationText": "Tra>Cor(1.3)>Sag(-0.0)",
  "ImageType": [
    "ORIGINAL",
    "PRIMARY",
    "M",
    "ND",
    "MOSAIC"
],
  "ImagingFrequency": 123.256,
  "InPlanePhaseEncodingDirectionDICOM": "COL",
  "InstitutionAddress": "Azinhaga Santa Comba StreetNo,Coimbra,District,PT,3000",
  "InstitutionName": "IBILI",
  "InstitutionalDepartmentName": "Department",
  "MRAcquisitionType": "2D",
  "MagneticFieldStrength": 3,
  "Manufacturer": "Siemens",
  "ManufacturersModelName": "TrioTim",
  "MatrixCoilMode": "SENSE",
  "Modality": "MR",
  "PartialFourier": 1,
  "PatientPosition": "HFS",
  "PercentPhaseFOV": 100,
  "PercentSampling": 100,
  "PhaseEncodingDirection": "j-",
  "PhaseEncodingSteps": 64,
  "PhaseResolution": 1,
  "PixelBandwidth": 2298,
  "ProcedureStepDescription": "Unknown",
  "ProtocolName": "rtfmri_neurofeedback_AvatarNofeedback",
  "PulseSequenceDetails": "%SiemensSeq%\\ep2d_bold",
  "ReceiveCoilName": "HeadMatrix",
  "ReconMatrixPE": 64,
  "RepetitionTime": 2,
  "SAR": 0.199886,
  "ScanOptions": "FS",
  "ScanningSequence": "EP",
  "SequenceName": "*epfid2d1_64",
  "SequenceVariant": "SK",
  "SeriesDescription": "rtfmri_neurofeedback_AvatarNofeedback",
  "SeriesNumber": 7,
  "ShimSetting": [15819, 7513, 21280, 721, 353, -56, -315, 62],
  "SliceThickness": 3,
  "SliceTiming": [0, 1.035, 0.06, 1.095, 0.1225, 1.155, 0.1825, 1.2175, 0.2425, 1.2775, 0.305, 1.3375, 0.365, 1.4, 0.425, 1.46, 0.4875, 1.52, 0.5475, 1.5825, 0.6075, 1.6425, 0.67, 1.7025, 0.73, 1.765, 0.79, 1.825, 0.8525, 1.885, 0.9125, 1.9475, 0.9725],
  "SoftwareVersions": "syngo MR B17",
  "SpacingBetweenSlices": 3,
  "StationName": "MRC35377",
  "TaskName": "nofeedback",
  "TotalReadoutTime": 0.0315,
  "TxRefAmp": 372.554,
  "dcmmeta_affine": [
    [-3.9995064735412598, -0.06282909959554672, -0.0008402488310821354, 126.8336410522461],
    [-0.06283849477767944, 3.9985222816467285, 0.06653978675603867, -84.45050811767578],
    [0.0002736271417234093, -0.08872637152671814, 2.9992618560791016, -59.50779342651367],
    [0.0, 0.0, 0.0, 1.0]
],
  "dcmmeta_reorient_transform": [
    [0.0, -1.0, 0.0, 63.0],
    [1.0, 0.0, 0.0, 0.0],
    [0.0, 0.0, 1.0, 0.0],
    [0.0, 0.0, 0.0, 1.0]
],
  "dcmmeta_shape": [64, 64, 33, 300],
  "dcmmeta_slice_dim": 2,
  "dcmmeta_version": 0.6,
  "global": {
    "const": {
      "AccessionNumber": "MJP20150429-0471",
      "AcquisitionMatrix": [64, 0, 0, 64],
      "Allergies": "MEDALERGIESL",
      "AngioFlag": "N",
      "BitsAllocated": 16,
      "BitsStored": 12,
      "Columns": 384,
      "EchoNumbers": 1,
      "EchoTime": 30.0,
      "EchoTrainLength": 1,
      "FlipAngle": 90.0,
      "HighBit": 11,
      "ImageOrientationPatient": [0.99987659391069, 0.01570962348594, 6.840678421e-05, -0.0157072754831, 0.99963056099282, 0.02218159205474],
      "ImagePositionPatient": [-752.74376852035, -817.27410912231, -79.337552788735],
      "ImageType": [
        "ORIGINAL",
        "PRIMARY",
        "M",
        "ND",
        "MOSAIC"
],
      "ImagedNucleus": "1H",
      "ImagingFrequency": 123.255626,
      "InPlanePhaseEncodingDirection": "COL",
      "MRAcquisitionType": "2D",
      "MagneticFieldStrength": 3.0,
      "Manufacturer": "SIEMENS",
      "ManufacturerModelName": "TrioTim",
      "MedicalAlerts": "MEDALERTS",
      "Modality": "MR",
      "NumberOfAverages": 1.0,
      "NumberOfPhaseEncodingSteps": 64,
      "PercentPhaseFieldOfView": 100.0,
      "PercentSampling": 100.0,
      "PerformedProcedureStepStartTime": "140257.187000",
      "PhotometricInterpretation": "MONOCHROME2",
      "PixelBandwidth": 2298.0,
      "PixelRepresentation": 0,
      "PixelSpacing": [4.0, 4.0],
      "ProtocolName": "rtfmri_neurofeedback_AvatarNofeedback",
      "RepetitionTime": 2000.0,
      "RequestAttributesSequence": [
        {
          "RequestedProcedureID": "adb4ca85-d564-49",
          "ScheduledProcedureStepDescription": "Unknown",
          "ScheduledProcedureStepID": "adb4ca85-d564-49"
        }
],
      "Rows": 384,
      "SAR": 0.19988607883648,
      "SamplesPerPixel": 1,
      "ScanOptions": "FS",
      "ScanningSequence": "EP",
      "SequenceName": "*epfid2d1_64",
      "SequenceVariant": "SK",
      "SeriesDescription": "rtfmri_neurofeedback_AvatarNofeedback",
      "SeriesNumber": 7,
      "SeriesTime": "144637.234000",
      "SliceLocation": -61.401781070008,
      "SliceThickness": 3.0,
      "SmallestImagePixelValue": 0,
      "SoftwareVersions": "syngo MR B17",
      "SpacingBetweenSlices": 2.9999999905782,
      "SpecificCharacterSet": "ISO_IR 100",
      "StudyID": "adb4ca85-d564-49",
      "StudyTime": "140257.125000",
      "TransmitCoilName": "Body",
      "VariableFlipAngleFlag": "N",
      "WindowCenterWidthExplanation": "Algo1",
      "dBdt": 0.0},
    "slices": {}
  },
  "time": {
    "samples": {
      "AcquisitionNumber": [1, 2, 3, 4, 5, 6, 7, 8, 9, 10, 11, 12, 13, 14, 15, 16, 17, 18, 19, 20, 21, 22, 23, 24, 25, 26, 27, 28, 29, 30, 31, 32, 33, 34, 35, 36, 37, 38, 39, 40, 41, 42, 43, 44, 45, 46, 47, 48, 49, 50, 51, 52, 53, 54, 55, 56, 57, 58, 59, 60, 61, 62, 63, 64, 65, 66, 67, 68, 69, 70, 71, 72, 73, 74, 75, 76, 77, 78, 79, 80, 81, 82, 83, 84, 85, 86, 87, 88, 89, 90, 91, 92, 93, 94, 95, 96, 97, 98, 99, 100, 101, 102, 103, 104, 105, 106, 107, 108, 109, 110, 111, 112, 113, 114, 115, 116, 117, 118, 119, 120, 121, 122, 123, 124, 125, 126, 127, 128, 129, 130, 131, 132, 133, 134, 135, 136, 137, 138, 139, 140, 141, 142, 143, 144, 145, 146, 147, 148, 149, 150, 151, 152, 153, 154, 155, 156, 157, 158, 159, 160, 161, 162, 163, 164, 165, 166, 167, 168, 169, 170, 171, 172, 173, 174, 175, 176, 177, 178, 179, 180, 181, 182, 183, 184, 185, 186, 187, 188, 189, 190, 191, 192, 193, 194, 195, 196, 197, 198, 199, 200, 201, 202, 203, 204, 205, 206, 207, 208, 209, 210, 211, 212, 213, 214, 215, 216, 217, 218, 219, 220, 221, 222, 223, 224, 225, 226, 227, 228, 229, 230, 231, 232, 233, 234, 235, 236, 237, 238, 239, 240, 241, 242, 243, 244, 245, 246, 247, 248, 249, 250, 251, 252, 253, 254, 255, 256, 257, 258, 259, 260, 261, 262, 263, 264, 265, 266, 267, 268, 269, 270, 271, 272, 273, 274, 275, 276, 277, 278, 279, 280, 281, 282, 283, 284, 285, 286, 287, 288, 289, 290, 291, 292, 293, 294, 295, 296, 297, 298, 299, 300],
      "AcquisitionTime": ["144633.762500", "144635.770000", "144637.777500", "144639.787500", "144641.795000", "144643.802500", "144645.810000", "144647.817500", "144649.827500", "144651.835000", "144653.842500", "144655.850000", "144657.857500", "144659.867500", "144701.875000", "144703.882500", "144705.890000", "144707.900000", "144709.907500", "144711.915000", "144713.922500", "144715.930000", "144717.940000", "144719.947500", "144721.955000", "144723.962500", "144725.970000", "144727.980000", "144729.987500", "144731.995000", "144734.002500", "144736.010000", "144738.020000", "144740.027500", "144742.035000", "144744.042500", "144746.052500", "144748.060000", "144750.067500", "144752.075000", "144754.082500", "144756.092500", "144758.100000", "144800.107500", "144802.115000", "144804.122500", "144806.132500", "144808.140000", "144810.147500", "144812.155000", "144814.165000", "144816.172500", "144818.180000", "144820.187500", "144822.195000", "144824.205000", "144826.212500", "144828.220000", "144830.227500", "144832.235000", "144834.245000", "144836.252500", "144838.260000", "144840.267500", "144842.277500", "144844.285000", "144846.292500", "144848.300000", "144850.307500", "144852.317500", "144854.325000", "144856.332500", "144858.340000", "144900.347500", "144902.357500", "144904.365000", "144906.372500", "144908.380000", "144910.387500", "144912.397500", "144914.405000", "144916.412500", "144918.420000", "144920.430000", "144922.437500", "144924.445000", "144926.452500", "144928.460000", "144930.470000", "144932.477500", "144934.485000", "144936.492500", "144938.500000", "144940.510000", "144942.517500", "144944.525000", "144946.532500", "144948.542500", "144950.550000", "144952.557500", "144954.565000", "144956.572500", "144958.582500", "145000.590000", "145002.597500", "145004.605000", "145006.612500", "145008.622500", "145010.630000", "145012.637500", "145014.645000", "145016.655000", "145018.662500", "145020.670000", "145022.677500", "145024.685000", "145026.695000", "145028.702500", "145030.710000", "145032.717500", "145034.725000", "145036.735000", "145038.742500", "145040.750000", "145042.757500", "145044.765000", "145046.775000", "145048.782500", "145050.790000", "145052.797500", "145054.807500", "145056.815000", "145058.822500", "145100.830000", "145102.837500", "145104.847500", "145106.855000", "145108.862500", "145110.870000", "145112.877500", "145114.887500", "145116.895000", "145118.902500", "145120.910000", "145122.920000", "145124.927500", "145126.935000", "145128.942500", "145130.950000", "145132.960000", "145134.967500", "145136.975000", "145138.982500", "145140.990000", "145143.000000", "145145.007500", "145147.015000", "145149.022500", "145151.032500", "145153.040000", "145155.047500", "145157.055000", "145159.062500", "145201.072500", "145203.080000", "145205.087500", "145207.095000", "145209.102500", "145211.112500", "145213.120000", "145215.127500", "145217.135000", "145219.142500", "145221.152500", "145223.160000", "145225.167500", "145227.175000", "145229.185000", "145231.192500", "145233.200000", "145235.207500", "145237.215000", "145239.225000", "145241.232500", "145243.240000", "145245.247500", "145247.255000", "145249.265000", "145251.272500", "145253.280000", "145255.287500", "145257.297500", "145259.305000", "145301.312500", "145303.320000", "145305.327500", "145307.337500", "145309.345000", "145311.352500", "145313.360000", "145315.367500", "145317.377500", "145319.385000", "145321.392500", "145323.400000", "145325.410000", "145327.417500", "145329.425000", "145331.432500", "145333.440000", "145335.450000", "145337.457500", "145339.465000", "145341.472500", "145343.480000", "145345.490000", "145347.497500", "145349.505000", "145351.512500", "145353.520000", "145355.530000", "145357.537500", "145359.545000", "145401.552500", "145403.562500", "145405.570000", "145407.577500", "145409.585000", "145411.592500", "145413.602500", "145415.610000", "145417.617500", "145419.625000", "145421.632500", "145423.642500", "145425.650000", "145427.657500", "145429.665000", "145431.675000", "145433.682500", "145435.690000", "145437.697500", "145439.705000", "145441.715000", "145443.722500", "145445.730000", "145447.737500", "145449.745000", "145451.755000", "145453.762500", "145455.770000", "145457.777500", "145459.787500", "145501.795000", "145503.802500", "145505.810000", "145507.817500", "145509.827500", "145511.835000", "145513.842500", "145515.850000", "145517.857500", "145519.867500", "145521.875000", "145523.882500", "145525.890000", "145527.900000", "145529.907500", "145531.915000", "145533.922500", "145535.930000", "145537.940000", "145539.947500", "145541.955000", "145543.962500", "145545.970000", "145547.980000", "145549.987500", "145551.995000", "145554.002500", "145556.010000", "145558.020000", "145600.027500", "145602.035000", "145604.042500", "145606.052500", "145608.060000", "145610.067500", "145612.075000", "145614.082500", "145616.092500", "145618.100000", "145620.107500", "145622.115000", "145624.122500", "145626.132500", "145628.140000", "145630.147500", "145632.155000", "145634.165000"],
      "ContentTime": ["144637.234000", "144639.218000", "144641.218000", "144643.218000", "144645.218000", "144647.218000", "144649.218000", "144651.218000", "144653.218000", "144655.218000", "144657.218000", "144659.218000", "144701.218000", "144703.218000", "144705.218000", "144707.218000", "144709.218000", "144711.218000", "144713.218000", "144715.218000", "144717.218000", "144719.218000", "144721.218000", "144723.218000", "144725.218000", "144727.218000", "144729.218000", "144731.218000", "144733.218000", "144735.218000", "144737.218000", "144739.218000", "144741.218000", "144743.218000", "144745.218000", "144747.218000", "144749.218000", "144751.218000", "144753.218000", "144755.218000", "144757.218000", "144759.218000", "144801.218000", "144803.218000", "144805.218000", "144807.218000", "144809.218000", "144811.218000", "144813.234000", "144815.218000", "144817.218000", "144819.218000", "144821.218000", "144823.218000", "144825.218000", "144827.218000", "144829.218000", "144831.218000", "144833.218000", "144835.218000", "144837.218000", "144839.218000", "144841.218000", "144843.218000", "144845.218000", "144847.218000", "144849.218000", "144851.218000", "144853.218000", "144855.218000", "144857.218000", "144859.218000", "144901.218000", "144903.218000", "144905.218000", "144907.218000", "144909.218000", "144911.218000", "144913.234000", "144915.218000", "144917.218000", "144919.218000", "144921.218000", "144923.218000", "144925.218000", "144927.218000", "144929.218000", "144931.218000", "144933.218000", "144935.218000", "144937.218000", "144939.218000", "144941.218000", "144943.218000", "144945.218000", "144947.218000", "144949.218000", "144951.218000", "144953.218000", "144955.218000", "144957.218000", "144959.218000", "145001.218000", "145003.218000", "145005.218000", "145007.218000", "145009.218000", "145011.218000", "145013.218000", "145015.218000", "145017.218000", "145019.218000", "145021.218000", "145023.218000", "145025.218000", "145027.218000", "145029.218000", "145031.218000", "145033.218000", "145035.218000", "145037.218000", "145039.218000", "145041.218000", "145043.218000", "145045.218000", "145047.218000", "145049.218000", "145051.218000", "145053.218000", "145055.218000", "145057.218000", "145059.218000", "145101.218000", "145103.218000", "145105.218000", "145107.218000", "145109.218000", "145111.218000", "145113.218000", "145115.218000", "145117.218000", "145119.218000", "145121.218000", "145123.218000", "145125.218000", "145127.218000", "145129.218000", "145131.218000", "145133.218000", "145135.218000", "145137.218000", "145139.218000", "145141.218000", "145143.218000", "145145.218000", "145147.218000", "145149.218000", "145151.234000", "145153.218000", "145155.218000", "145157.218000", "145159.218000", "145201.218000", "145203.218000", "145205.218000", "145207.218000", "145209.218000", "145211.218000", "145213.218000", "145215.218000", "145217.218000", "145219.218000", "145221.218000", "145223.218000", "145225.218000", "145227.218000", "145229.234000", "145231.234000", "145233.234000", "145235.234000", "145237.234000", "145239.234000", "145241.234000", "145243.234000", "145245.234000", "145247.234000", "145249.234000", "145251.234000", "145253.234000", "145255.234000", "145257.234000", "145259.234000", "145301.234000", "145303.234000", "145305.234000", "145307.234000", "145309.234000", "145311.234000", "145313.234000", "145315.234000", "145317.234000", "145319.234000", "145321.234000", "145323.234000", "145325.234000", "145327.234000", "145329.234000", "145331.234000", "145333.234000", "145335.234000", "145337.234000", "145339.234000", "145341.234000", "145343.234000", "145345.234000", "145347.234000", "145349.234000", "145351.234000", "145353.234000", "145355.234000", "145357.234000", "145359.234000", "145401.234000", "145403.234000", "145405.234000", "145407.234000", "145409.234000", "145411.234000", "145413.234000", "145415.234000", "145417.234000", "145419.234000", "145421.234000", "145423.234000", "145425.234000", "145427.234000", "145429.234000", "145431.234000", "145433.234000", "145435.218000", "145437.234000", "145439.234000", "145441.234000", "145443.234000", "145445.218000", "145447.234000", "145449.234000", "145451.234000", "145453.250000", "145455.234000", "145457.234000", "145459.234000", "145501.234000", "145503.234000", "145505.234000", "145507.234000", "145509.234000", "145511.234000", "145513.234000", "145515.234000", "145517.234000", "145519.234000", "145521.234000", "145523.234000", "145525.234000", "145527.234000", "145529.234000", "145531.234000", "145533.234000", "145535.234000", "145537.234000", "145539.234000", "145541.234000", "145543.234000", "145545.234000", "145547.234000", "145549.234000", "145551.234000", "145553.234000", "145555.234000", "145557.234000", "145559.234000", "145601.234000", "145603.234000", "145605.234000", "145607.234000", "145609.234000", "145611.234000", "145613.234000", "145615.234000", "145617.234000", "145619.234000", "145621.234000", "145623.234000", "145625.234000", "145627.234000", "145629.234000", "145631.234000", "145633.234000", "145634.843000"],
      "InstanceCreationTime": ["144637.234000", "144639.218000", "144641.218000", "144643.218000", "144645.218000", "144647.218000", "144649.218000", "144651.218000", "144653.218000", "144655.218000", "144657.218000", "144659.218000", "144701.218000", "144703.218000", "144705.218000", "144707.218000", "144709.218000", "144711.218000", "144713.218000", "144715.218000", "144717.218000", "144719.218000", "144721.218000", "144723.218000", "144725.218000", "144727.218000", "144729.218000", "144731.218000", "144733.218000", "144735.218000", "144737.218000", "144739.218000", "144741.218000", "144743.218000", "144745.218000", "144747.218000", "144749.218000", "144751.218000", "144753.218000", "144755.218000", "144757.218000", "144759.218000", "144801.218000", "144803.218000", "144805.218000", "144807.218000", "144809.218000", "144811.218000", "144813.234000", "144815.218000", "144817.218000", "144819.218000", "144821.218000", "144823.218000", "144825.218000", "144827.218000", "144829.218000", "144831.218000", "144833.218000", "144835.218000", "144837.218000", "144839.218000", "144841.218000", "144843.218000", "144845.218000", "144847.218000", "144849.218000", "144851.218000", "144853.218000", "144855.218000", "144857.218000", "144859.218000", "144901.218000", "144903.218000", "144905.218000", "144907.218000", "144909.218000", "144911.218000", "144913.234000", "144915.218000", "144917.218000", "144919.218000", "144921.218000", "144923.218000", "144925.218000", "144927.218000", "144929.218000", "144931.218000", "144933.218000", "144935.218000", "144937.218000", "144939.218000", "144941.218000", "144943.218000", "144945.218000", "144947.218000", "144949.218000", "144951.218000", "144953.218000", "144955.218000", "144957.218000", "144959.218000", "145001.218000", "145003.218000", "145005.218000", "145007.218000", "145009.218000", "145011.218000", "145013.218000", "145015.218000", "145017.218000", "145019.218000", "145021.218000", "145023.218000", "145025.218000", "145027.218000", "145029.218000", "145031.218000", "145033.218000", "145035.218000", "145037.218000", "145039.218000", "145041.218000", "145043.218000", "145045.218000", "145047.218000", "145049.218000", "145051.218000", "145053.218000", "145055.218000", "145057.218000", "145059.218000", "145101.218000", "145103.218000", "145105.218000", "145107.218000", "145109.218000", "145111.218000", "145113.218000", "145115.218000", "145117.218000", "145119.218000", "145121.218000", "145123.218000", "145125.218000", "145127.218000", "145129.218000", "145131.218000", "145133.218000", "145135.218000", "145137.218000", "145139.218000", "145141.218000", "145143.218000", "145145.218000", "145147.218000", "145149.218000", "145151.234000", "145153.218000", "145155.218000", "145157.218000", "145159.218000", "145201.218000", "145203.218000", "145205.218000", "145207.218000", "145209.218000", "145211.218000", "145213.218000", "145215.218000", "145217.218000", "145219.218000", "145221.218000", "145223.218000", "145225.218000", "145227.218000", "145229.234000", "145231.234000", "145233.234000", "145235.234000", "145237.234000", "145239.234000", "145241.234000", "145243.234000", "145245.234000", "145247.234000", "145249.234000", "145251.234000", "145253.234000", "145255.234000", "145257.234000", "145259.234000", "145301.234000", "145303.234000", "145305.234000", "145307.234000", "145309.234000", "145311.234000", "145313.234000", "145315.234000", "145317.234000", "145319.234000", "145321.234000", "145323.234000", "145325.234000", "145327.234000", "145329.234000", "145331.234000", "145333.234000", "145335.234000", "145337.234000", "145339.234000", "145341.234000", "145343.234000", "145345.234000", "145347.234000", "145349.234000", "145351.234000", "145353.234000", "145355.234000", "145357.234000", "145359.234000", "145401.234000", "145403.234000", "145405.234000", "145407.234000", "145409.234000", "145411.234000", "145413.234000", "145415.234000", "145417.234000", "145419.234000", "145421.234000", "145423.234000", "145425.234000", "145427.234000", "145429.234000", "145431.234000", "145433.234000", "145435.218000", "145437.234000", "145439.234000", "145441.234000", "145443.234000", "145445.218000", "145447.234000", "145449.234000", "145451.234000", "145453.250000", "145455.234000", "145457.234000", "145459.234000", "145501.234000", "145503.234000", "145505.234000", "145507.234000", "145509.234000", "145511.234000", "145513.234000", "145515.234000", "145517.234000", "145519.234000", "145521.234000", "145523.234000", "145525.234000", "145527.234000", "145529.234000", "145531.234000", "145533.234000", "145535.234000", "145537.234000", "145539.234000", "145541.234000", "145543.234000", "145545.234000", "145547.234000", "145549.234000", "145551.234000", "145553.234000", "145555.234000", "145557.234000", "145559.234000", "145601.234000", "145603.234000", "145605.234000", "145607.234000", "145609.234000", "145611.234000", "145613.234000", "145615.234000", "145617.234000", "145619.234000", "145621.234000", "145623.234000", "145625.234000", "145627.234000", "145629.234000", "145631.234000", "145633.234000", "145634.843000"],
      "InstanceNumber": [1, 2, 3, 4, 5, 6, 7, 8, 9, 10, 11, 12, 13, 14, 15, 16, 17, 18, 19, 20, 21, 22, 23, 24, 25, 26, 27, 28, 29, 30, 31, 32, 33, 34, 35, 36, 37, 38, 39, 40, 41, 42, 43, 44, 45, 46, 47, 48, 49, 50, 51, 52, 53, 54, 55, 56, 57, 58, 59, 60, 61, 62, 63, 64, 65, 66, 67, 68, 69, 70, 71, 72, 73, 74, 75, 76, 77, 78, 79, 80, 81, 82, 83, 84, 85, 86, 87, 88, 89, 90, 91, 92, 93, 94, 95, 96, 97, 98, 99, 100, 101, 102, 103, 104, 105, 106, 107, 108, 109, 110, 111, 112, 113, 114, 115, 116, 117, 118, 119, 120, 121, 122, 123, 124, 125, 126, 127, 128, 129, 130, 131, 132, 133, 134, 135, 136, 137, 138, 139, 140, 141, 142, 143, 144, 145, 146, 147, 148, 149, 150, 151, 152, 153, 154, 155, 156, 157, 158, 159, 160, 161, 162, 163, 164, 165, 166, 167, 168, 169, 170, 171, 172, 173, 174, 175, 176, 177, 178, 179, 180, 181, 182, 183, 184, 185, 186, 187, 188, 189, 190, 191, 192, 193, 194, 195, 196, 197, 198, 199, 200, 201, 202, 203, 204, 205, 206, 207, 208, 209, 210, 211, 212, 213, 214, 215, 216, 217, 218, 219, 220, 221, 222, 223, 224, 225, 226, 227, 228, 229, 230, 231, 232, 233, 234, 235, 236, 237, 238, 239, 240, 241, 242, 243, 244, 245, 246, 247, 248, 249, 250, 251, 252, 253, 254, 255, 256, 257, 258, 259, 260, 261, 262, 263, 264, 265, 266, 267, 268, 269, 270, 271, 272, 273, 274, 275, 276, 277, 278, 279, 280, 281, 282, 283, 284, 285, 286, 287, 288, 289, 290, 291, 292, 293, 294, 295, 296, 297, 298, 299, 300],
      "LargestImagePixelValue": [1352, 1333, 1336, 1331, 1327, 1311, 1300, 1305, 1301, 1315, 1312, 1302, 1307, 1315, 1303, 1292, 1300, 1295, 1318, 1295, 1316, 1296, 1304, 1301, 1304, 1300, 1303, 1315, 1302, 1327, 1301, 1301, 1315, 1307, 1306, 1306, 1292, 1339, 1283, 1297, 1306, 1307, 1286, 1303, 1296, 1321, 1352, 1298, 1289, 1290, 1300, 1292, 1310, 1305, 1303, 1301, 1300, 1318, 1314, 1305, 1315, 1300, 1307, 1308, 1293, 1294, 1306, 1294, 1309, 1318, 1309, 1309, 1299, 1390, 1318, 1292, 1302, 1328, 1308, 1318, 1303, 1407, 1295, 1325, 1298, 1299, 1304, 1303, 1306, 1313, 1299, 1300, 1305, 1305, 1310, 1303, 1298, 1312, 1303, 1299, 1297, 1292, 1298, 1391, 1306, 1308, 1310, 1314, 1306, 1316, 1306, 1302, 1309, 1310, 1297, 1304, 1311, 1304, 1308, 1305, 1294, 1291, 1321, 1294, 1294, 1306, 1366, 1294, 1307, 1300, 1315, 1321, 1318, 1305, 1291, 1293, 1303, 1289, 1460, 1313, 1326, 1323, 1354, 1367, 1319, 1318, 1341, 1327, 1327, 1347, 1328, 1337, 1311, 1345, 1351, 1324, 1467, 1454, 1298, 1317, 1337, 1342, 1327, 1340, 1348, 1333, 1338, 1343, 1344, 1312, 1322, 1310, 1317, 1341, 1317, 1315, 1327, 1334, 1327, 1333, 1326, 1341, 1322, 1327, 1335, 1324, 1335, 1332, 1336, 1332, 1314, 1331, 1313, 1310, 1308, 1313, 1577, 1343, 1311, 1323, 1310, 1311, 1326, 1322, 1299, 1300, 1399, 1403, 1347, 1348, 1335, 1335, 1315, 1336, 1308, 1336, 1331, 1317, 1336, 1335, 1327, 1350, 1350, 1344, 1350, 1353, 1343, 1348, 1336, 1322, 1362, 1314, 1496, 1300, 1331, 1334, 1327, 1332, 1347, 1337, 1329, 1330, 1315, 1337, 1342, 1343, 1324, 1327, 1326, 1323, 1323, 1312, 1328, 1321, 1312, 1310, 1309, 1319, 1331, 1321, 1349, 1323, 1326, 1313, 1319, 1312, 1460, 1311, 1300, 1299, 1314, 1332, 1313, 1319, 1307, 1327, 1335, 1313, 1326, 1324, 1324, 1320, 1318, 1310, 1328, 1321, 1352, 1356, 1342, 1347, 1333, 1351, 1348, 1324, 1319, 1370, 1335, 1345, 1341, 1362],
      "WindowCenter": [633.0, 634.0, 634.0, 634.0, 632.0, 632.0, 632.0, 632.0, 633.0, 632.0, 632.0, 632.0, 632.0, 633.0, 633.0, 633.0, 633.0, 633.0, 633.0, 632.0, 633.0, 633.0, 634.0, 634.0, 633.0, 633.0, 634.0, 634.0, 632.0, 635.0, 633.0, 633.0, 633.0, 634.0, 634.0, 634.0, 634.0, 634.0, 634.0, 634.0, 634.0, 634.0, 634.0, 634.0, 634.0, 626.0, 637.0, 633.0, 634.0, 634.0, 634.0, 634.0, 634.0, 634.0, 634.0, 634.0, 634.0, 634.0, 634.0, 634.0, 634.0, 634.0, 634.0, 634.0, 634.0, 634.0, 634.0, 634.0, 634.0, 634.0, 634.0, 634.0, 632.0, 634.0, 636.0, 635.0, 635.0, 635.0, 635.0, 635.0, 630.0, 635.0, 634.0, 635.0, 634.0, 634.0, 634.0, 635.0, 634.0, 635.0, 634.0, 635.0, 635.0, 635.0, 635.0, 635.0, 635.0, 636.0, 636.0, 636.0, 636.0, 636.0, 624.0, 638.0, 634.0, 635.0, 636.0, 636.0, 635.0, 635.0, 635.0, 635.0, 635.0, 636.0, 635.0, 635.0, 635.0, 636.0, 636.0, 635.0, 635.0, 632.0, 637.0, 635.0, 636.0, 633.0, 637.0, 635.0, 635.0, 636.0, 636.0, 636.0, 636.0, 635.0, 635.0, 635.0, 636.0, 632.0, 638.0, 635.0, 635.0, 635.0, 637.0, 637.0, 635.0, 635.0, 635.0, 636.0, 636.0, 637.0, 636.0, 636.0, 636.0, 636.0, 637.0, 630.0, 638.0, 637.0, 636.0, 636.0, 636.0, 636.0, 635.0, 636.0, 636.0, 637.0, 636.0, 636.0, 637.0, 631.0, 637.0, 636.0, 636.0, 637.0, 637.0, 636.0, 636.0, 637.0, 636.0, 637.0, 636.0, 637.0, 636.0, 636.0, 637.0, 636.0, 637.0, 637.0, 637.0, 637.0, 636.0, 637.0, 636.0, 636.0, 636.0, 631.0, 639.0, 637.0, 636.0, 635.0, 636.0, 637.0, 637.0, 637.0, 636.0, 631.0, 634.0, 638.0, 637.0, 637.0, 637.0, 636.0, 636.0, 636.0, 636.0, 637.0, 637.0, 636.0, 637.0, 637.0, 637.0, 638.0, 637.0, 637.0, 636.0, 637.0, 637.0, 637.0, 636.0, 636.0, 638.0, 632.0, 638.0, 635.0, 636.0, 637.0, 636.0, 637.0, 636.0, 636.0, 635.0, 636.0, 636.0, 634.0, 637.0, 636.0, 635.0, 635.0, 635.0, 635.0, 635.0, 636.0, 635.0, 636.0, 636.0, 636.0, 635.0, 636.0, 636.0, 636.0, 637.0, 636.0, 636.0, 636.0, 636.0, 629.0, 638.0, 636.0, 635.0, 636.0, 636.0, 637.0, 636.0, 635.0, 636.0, 636.0, 636.0, 636.0, 636.0, 636.0, 636.0, 635.0, 636.0, 636.0, 636.0, 636.0, 637.0, 636.0, 636.0, 636.0, 637.0, 637.0, 637.0, 636.0, 636.0, 638.0, 638.0, 637.0, 637.0, 637.0],
