{
  "AcquisitionMatrixPE": 64,
  "AcquisitionNumber": 1,
  "AcquisitionTime": "14:35:5.302500",
  "BandwidthPerPixelPhaseEncode": 31.25,
  "BaseResolution": 64,
  "CoilCombinationMethod": "Sum of Squares",
  "CoilString": "C:HEA;HEP",
  "ConversionSoftware": "dcm2niix",
  "ConversionSoftwareVersion": "v1.0.20211006",
  "DerivedVendorReportedEchoSpacing": 0.0005,
  "DeviceSerialNumber": "35377",
  "DwellTime": 3.4e-06,
  "EchoTime": 0.03,
  "EffectiveEchoSpacing": 0.0005,
  "FlipAngle": 90,
  "ImageOrientationPatientDICOM": [0.999877, 0.0157096, 6.84068e-05, -0.0157073, 0.999631, 0.0221816],
  "ImageOrientationText": "Tra>Cor(1.3)>Sag(-0.0)",
  "ImageType": [
    "ORIGINAL",
    "PRIMARY",
    "M",
    "ND",
    "MOSAIC"
],
  "ImagingFrequency": 123.256,
  "InPlanePhaseEncodingDirectionDICOM": "COL",
  "InstitutionAddress": "Azinhaga Santa Comba StreetNo,Coimbra,District,PT,3000",
  "InstitutionName": "IBILI",
  "InstitutionalDepartmentName": "Department",
  "MRAcquisitionType": "2D",
  "MagneticFieldStrength": 3,
  "Manufacturer": "Siemens",
  "ManufacturersModelName": "TrioTim",
  "MatrixCoilMode": "SENSE",
  "Modality": "MR",
  "PartialFourier": 1,
  "PatientPosition": "HFS",
  "PercentPhaseFOV": 100,
  "PercentSampling": 100,
  "PhaseEncodingDirection": "j-",
  "PhaseEncodingSteps": 64,
  "PhaseResolution": 1,
  "PixelBandwidth": 2298,
  "ProcedureStepDescription": "Unknown",
  "ProtocolName": "rtfmri_neurofeedback_AvatarVisual",
  "PulseSequenceDetails": "%SiemensSeq%\\ep2d_bold",
  "ReceiveCoilName": "HeadMatrix",
  "ReconMatrixPE": 64,
  "RepetitionTime": 2,
  "SAR": 0.199886,
  "ScanOptions": "FS",
  "ScanningSequence": "EP",
  "SequenceName": "*epfid2d1_64",
  "SequenceVariant": "SK",
  "SeriesDescription": "rtfmri_neurofeedback_AvatarVisual",
  "SeriesNumber": 6,
  "ShimSetting": [15819, 7513, 21280, 721, 353, -56, -315, 62],
  "SliceThickness": 3,
  "SliceTiming": [0, 1.0325, 0.06, 1.095, 0.12, 1.155, 0.1825, 1.215, 0.2425, 1.2775, 0.3025, 1.3375, 0.365, 1.3975, 0.425, 1.46, 0.485, 1.52, 0.5475, 1.58, 0.6075, 1.6425, 0.6675, 1.7025, 0.73, 1.7625, 0.79, 1.825, 0.85, 1.885, 0.9125, 1.945, 0.9725],
  "SoftwareVersions": "syngo MR B17",
  "SpacingBetweenSlices": 3,
  "StationName": "MRC35377",
  "TaskName": "visualfeedback",
  "TotalReadoutTime": 0.0315,
  "TxRefAmp": 372.554,
  "dcmmeta_affine": [
    [-3.9995064735412598, -0.06282909959554672, -0.0008402488310821354, 126.8336410522461],
    [-0.06283849477767944, 3.9985222816467285, 0.06653978675603867, -84.45050811767578],
    [0.0002736271417234093, -0.08872637152671814, 2.9992618560791016, -59.50779342651367],
    [0.0, 0.0, 0.0, 1.0]
],
  "dcmmeta_reorient_transform": [
    [0.0, -1.0, 0.0, 63.0],
    [1.0, 0.0, 0.0, 0.0],
    [0.0, 0.0, 1.0, 0.0],
    [0.0, 0.0, 0.0, 1.0]
],
  "dcmmeta_shape": [64, 64, 33, 300],
  "dcmmeta_slice_dim": 2,
  "dcmmeta_version": 0.6,
  "global": {
    "const": {
      "AccessionNumber": "MJP20150429-0471",
      "AcquisitionMatrix": [64, 0, 0, 64],
      "Allergies": "MEDALERGIESL",
      "AngioFlag": "N",
      "BitsAllocated": 16,
      "BitsStored": 12,
      "Columns": 384,
      "EchoNumbers": 1,
      "EchoTime": 30.0,
      "EchoTrainLength": 1,
      "FlipAngle": 90.0,
      "HighBit": 11,
      "ImageOrientationPatient": [0.99987659391069, 0.01570962348594, 6.840678421e-05, -0.0157072754831, 0.99963056099282, 0.02218159205474],
      "ImagePositionPatient": [-752.74376852035, -817.27410912231, -79.337552788735],
      "ImageType": [
        "ORIGINAL",
        "PRIMARY",
        "M",
        "ND",
        "MOSAIC"
],
      "ImagedNucleus": "1H",
      "ImagingFrequency": 123.255617,
      "InPlanePhaseEncodingDirection": "COL",
      "MRAcquisitionType": "2D",
      "MagneticFieldStrength": 3.0,
      "Manufacturer": "SIEMENS",
      "ManufacturerModelName": "TrioTim",
      "MedicalAlerts": "MEDALERTS",
      "Modality": "MR",
      "NumberOfAverages": 1.0,
      "NumberOfPhaseEncodingSteps": 64,
      "PercentPhaseFieldOfView": 100.0,
      "PercentSampling": 100.0,
      "PerformedProcedureStepStartTime": "140257.187000",
      "PhotometricInterpretation": "MONOCHROME2",
      "PixelBandwidth": 2298.0,
      "PixelRepresentation": 0,
      "PixelSpacing": [4.0, 4.0],
      "ProtocolName": "rtfmri_neurofeedback_AvatarVisual",
      "RepetitionTime": 2000.0,
      "RequestAttributesSequence": [
        {
          "RequestedProcedureID": "adb4ca85-d564-49",
          "ScheduledProcedureStepDescription": "Unknown",
          "ScheduledProcedureStepID": "adb4ca85-d564-49"
        }
],
      "Rows": 384,
      "SAR": 0.19988607883648,
      "SamplesPerPixel": 1,
      "ScanOptions": "FS",
      "ScanningSequence": "EP",
      "SequenceName": "*epfid2d1_64",
      "SequenceVariant": "SK",
      "SeriesDescription": "rtfmri_neurofeedback_AvatarVisual",
      "SeriesNumber": 6,
      "SeriesTime": "143508.593000",
      "SliceLocation": -61.401781070008,
      "SliceThickness": 3.0,
      "SmallestImagePixelValue": 0,
      "SoftwareVersions": "syngo MR B17",
      "SpacingBetweenSlices": 2.9999999905782,
      "SpecificCharacterSet": "ISO_IR 100",
      "StudyID": "adb4ca85-d564-49",
      "StudyTime": "140257.125000",
      "TransmitCoilName": "Body",
      "VariableFlipAngleFlag": "N",
      "WindowCenterWidthExplanation": "Algo1",
      "dBdt": 0.0},
    "slices": {}
  },
  "time": {
    "samples": {
      "AcquisitionNumber": [1, 2, 3, 4, 5, 6, 7, 8, 9, 10, 11, 12, 13, 14, 15, 16, 17, 18, 19, 20, 21, 22, 23, 24, 25, 26, 27, 28, 29, 30, 31, 32, 33, 34, 35, 36, 37, 38, 39, 40, 41, 42, 43, 44, 45, 46, 47, 48, 49, 50, 51, 52, 53, 54, 55, 56, 57, 58, 59, 60, 61, 62, 63, 64, 65, 66, 67, 68, 69, 70, 71, 72, 73, 74, 75, 76, 77, 78, 79, 80, 81, 82, 83, 84, 85, 86, 87, 88, 89, 90, 91, 92, 93, 94, 95, 96, 97, 98, 99, 100, 101, 102, 103, 104, 105, 106, 107, 108, 109, 110, 111, 112, 113, 114, 115, 116, 117, 118, 119, 120, 121, 122, 123, 124, 125, 126, 127, 128, 129, 130, 131, 132, 133, 134, 135, 136, 137, 138, 139, 140, 141, 142, 143, 144, 145, 146, 147, 148, 149, 150, 151, 152, 153, 154, 155, 156, 157, 158, 159, 160, 161, 162, 163, 164, 165, 166, 167, 168, 169, 170, 171, 172, 173, 174, 175, 176, 177, 178, 179, 180, 181, 182, 183, 184, 185, 186, 187, 188, 189, 190, 191, 192, 193, 194, 195, 196, 197, 198, 199, 200, 201, 202, 203, 204, 205, 206, 207, 208, 209, 210, 211, 212, 213, 214, 215, 216, 217, 218, 219, 220, 221, 222, 223, 224, 225, 226, 227, 228, 229, 230, 231, 232, 233, 234, 235, 236, 237, 238, 239, 240, 241, 242, 243, 244, 245, 246, 247, 248, 249, 250, 251, 252, 253, 254, 255, 256, 257, 258, 259, 260, 261, 262, 263, 264, 265, 266, 267, 268, 269, 270, 271, 272, 273, 274, 275, 276, 277, 278, 279, 280, 281, 282, 283, 284, 285, 286, 287, 288, 289, 290, 291, 292, 293, 294, 295, 296, 297, 298, 299, 300],
      "AcquisitionTime": ["143505.302500", "143507.310000", "143509.317500", "143511.325000", "143513.332500", "143515.342500", "143517.350000", "143519.357500", "143521.365000", "143523.375000", "143525.382500", "143527.390000", "143529.397500", "143531.405000", "143533.415000", "143535.422500", "143537.430000", "143539.437500", "143541.445000", "143543.455000", "143545.462500", "143547.470000", "143549.477500", "143551.487500", "143553.495000", "143555.502500", "143557.510000", "143559.517500", "143601.527500", "143603.535000", "143605.542500", "143607.550000", "143609.557500", "143611.567500", "143613.575000", "143615.582500", "143617.590000", "143619.597500", "143621.607500", "143623.615000", "143625.622500", "143627.630000", "143629.640000", "143631.647500", "143633.655000", "143635.662500", "143637.670000", "143639.680000", "143641.687500", "143643.695000", "143645.702500", "143647.710000", "143649.720000", "143651.727500", "143653.735000", "143655.742500", "143657.752500", "143659.760000", "143701.767500", "143703.775000", "143705.782500", "143707.792500", "143709.800000", "143711.807500", "143713.815000", "143715.822500", "143717.832500", "143719.840000", "143721.847500", "143723.855000", "143725.865000", "143727.872500", "143729.880000", "143731.887500", "143733.895000", "143735.905000", "143737.912500", "143739.920000", "143741.927500", "143743.935000", "143745.945000", "143747.952500", "143749.960000", "143751.967500", "143753.975000", "143755.985000", "143757.992500", "143800.000000", "143802.007500", "143804.017500", "143806.025000", "143808.032500", "143810.040000", "143812.047500", "143814.057500", "143816.065000", "143818.072500", "143820.080000", "143822.087500", "143824.097500", "143826.105000", "143828.112500", "143830.120000", "143832.130000", "143834.137500", "143836.145000", "143838.152500", "143840.160000", "143842.170000", "143844.177500", "143846.185000", "143848.192500", "143850.200000", "143852.210000", "143854.217500", "143856.225000", "143858.232500", "143900.242500", "143902.250000", "143904.257500", "143906.265000", "143908.272500", "143910.282500", "143912.290000", "143914.297500", "143916.305000", "143918.312500", "143920.322500", "143922.330000", "143924.337500", "143926.345000", "143928.352500", "143930.362500", "143932.370000", "143934.377500", "143936.385000", "143938.395000", "143940.402500", "143942.410000", "143944.417500", "143946.425000", "143948.435000", "143950.442500", "143952.450000", "143954.457500", "143956.465000", "143958.475000", "144000.482500", "144002.490000", "144004.497500", "144006.507500", "144008.515000", "144010.522500", "144012.530000", "144014.537500", "144016.547500", "144018.555000", "144020.562500", "144022.570000", "144024.577500", "144026.587500", "144028.595000", "144030.602500", "144032.610000", "144034.620000", "144036.627500", "144038.635000", "144040.642500", "144042.650000", "144044.660000", "144046.667500", "144048.675000", "144050.682500", "144052.690000", "144054.700000", "144056.707500", "144058.715000", "144100.722500", "144102.730000", "144104.740000", "144106.747500", "144108.755000", "144110.762500", "144112.772500", "144114.780000", "144116.787500", "144118.795000", "144120.802500", "144122.812500", "144124.820000", "144126.827500", "144128.835000", "144130.842500", "144132.852500", "144134.860000", "144136.867500", "144138.875000", "144140.885000", "144142.892500", "144144.900000", "144146.907500", "144148.915000", "144150.925000", "144152.932500", "144154.940000", "144156.947500", "144158.955000", "144200.965000", "144202.972500", "144204.980000", "144206.987500", "144208.997500", "144211.005000", "144213.012500", "144215.020000", "144217.027500", "144219.037500", "144221.045000", "144223.052500", "144225.060000", "144227.067500", "144229.077500", "144231.085000", "144233.092500", "144235.100000", "144237.107500", "144239.117500", "144241.125000", "144243.132500", "144245.140000", "144247.150000", "144249.157500", "144251.165000", "144253.172500", "144255.180000", "144257.190000", "144259.197500", "144301.205000", "144303.212500", "144305.220000", "144307.230000", "144309.237500", "144311.245000", "144313.252500", "144315.262500", "144317.270000", "144319.277500", "144321.285000", "144323.292500", "144325.302500", "144327.310000", "144329.317500", "144331.325000", "144333.332500", "144335.342500", "144337.350000", "144339.357500", "144341.365000", "144343.375000", "144345.382500", "144347.390000", "144349.397500", "144351.405000", "144353.415000", "144355.422500", "144357.430000", "144359.437500", "144401.445000", "144403.455000", "144405.462500", "144407.470000", "144409.477500", "144411.487500", "144413.495000", "144415.502500", "144417.510000", "144419.517500", "144421.527500", "144423.535000", "144425.542500", "144427.550000", "144429.557500", "144431.567500", "144433.575000", "144435.582500", "144437.590000", "144439.597500", "144441.607500", "144443.615000", "144445.622500", "144447.630000", "144449.640000", "144451.647500", "144453.655000", "144455.662500", "144457.670000", "144459.680000", "144501.687500", "144503.695000", "144505.702500"],
      "ContentTime": ["143508.593000", "143510.578000", "143512.578000", "143514.578000", "143516.578000", "143518.578000", "143520.578000", "143522.578000", "143524.578000", "143526.578000", "143528.578000", "143530.578000", "143532.578000", "143534.578000", "143536.578000", "143538.578000", "143540.578000", "143542.578000", "143544.578000", "143546.578000", "143548.578000", "143550.578000", "143552.578000", "143554.578000", "143556.578000", "143558.578000", "143600.578000", "143602.578000", "143604.578000", "143606.578000", "143608.578000", "143610.578000", "143612.578000", "143614.578000", "143616.578000", "143618.578000", "143620.578000", "143622.578000", "143624.578000", "143626.578000", "143628.578000", "143630.578000", "143632.578000", "143634.578000", "143636.578000", "143638.578000", "143640.578000", "143642.578000", "143644.578000", "143646.578000", "143648.578000", "143650.578000", "143652.578000", "143654.578000", "143656.578000", "143658.578000", "143700.578000", "143702.578000", "143704.578000", "143706.578000", "143708.578000", "143710.578000", "143712.578000", "143714.578000", "143716.578000", "143718.578000", "143720.578000", "143722.578000", "143724.578000", "143726.578000", "143728.578000", "143730.578000", "143732.578000", "143734.578000", "143736.578000", "143738.578000", "143740.578000", "143742.578000", "143744.578000", "143746.578000", "143748.578000", "143750.578000", "143752.578000", "143754.578000", "143756.578000", "143758.578000", "143800.578000", "143802.578000", "143804.578000", "143806.578000", "143808.578000", "143810.578000", "143812.578000", "143814.578000", "143816.578000", "143818.578000", "143820.578000", "143822.578000", "143824.593000", "143826.578000", "143828.578000", "143830.578000", "143832.578000", "143834.578000", "143836.578000", "143838.578000", "143840.578000", "143842.578000", "143844.578000", "143846.578000", "143848.578000", "143850.578000", "143852.578000", "143854.578000", "143856.578000", "143858.578000", "143900.578000", "143902.578000", "143904.578000", "143906.578000", "143908.578000", "143910.578000", "143912.578000", "143914.578000", "143916.578000", "143918.578000", "143920.578000", "143922.578000", "143924.578000", "143926.578000", "143928.578000", "143930.578000", "143932.578000", "143934.578000", "143936.578000", "143938.578000", "143940.578000", "143942.578000", "143944.578000", "143946.578000", "143948.578000", "143950.578000", "143952.578000", "143954.578000", "143956.578000", "143958.578000", "144000.578000", "144002.578000", "144004.578000", "144006.578000", "144008.578000", "144010.578000", "144012.578000", "144014.578000", "144016.578000", "144018.578000", "144020.578000", "144022.578000", "144024.578000", "144026.578000", "144028.578000", "144030.578000", "144032.578000", "144034.578000", "144036.578000", "144038.578000", "144040.578000", "144042.578000", "144044.578000", "144046.578000", "144048.578000", "144050.578000", "144052.578000", "144054.578000", "144056.578000", "144058.578000", "144100.578000", "144102.578000", "144104.578000", "144106.578000", "144108.578000", "144110.578000", "144112.578000", "144114.578000", "144116.578000", "144118.578000", "144120.578000", "144122.578000", "144124.578000", "144126.578000", "144128.578000", "144130.578000", "144132.578000", "144134.578000", "144136.578000", "144138.578000", "144140.578000", "144142.593000", "144144.593000", "144146.593000", "144148.593000", "144150.593000", "144152.593000", "144154.593000", "144156.593000", "144158.593000", "144200.593000", "144202.593000", "144204.593000", "144206.593000", "144208.593000", "144210.593000", "144212.593000", "144214.578000", "144216.578000", "144218.593000", "144220.593000", "144222.593000", "144224.593000", "144226.593000", "144228.593000", "144230.593000", "144232.593000", "144234.593000", "144236.593000", "144238.593000", "144240.593000", "144242.593000", "144244.593000", "144246.593000", "144248.593000", "144250.593000", "144252.593000", "144254.593000", "144256.593000", "144258.593000", "144300.593000", "144302.593000", "144304.593000", "144306.593000", "144308.593000", "144310.593000", "144312.593000", "144314.593000", "144316.593000", "144318.593000", "144320.593000", "144322.593000", "144324.593000", "144326.593000", "144328.593000", "144330.593000", "144332.593000", "144334.593000", "144336.593000", "144338.593000", "144340.593000", "144342.593000", "144344.593000", "144346.593000", "144348.593000", "144350.593000", "144352.593000", "144354.593000", "144356.593000", "144358.593000", "144400.593000", "144402.593000", "144404.593000", "144406.593000", "144408.593000", "144410.593000", "144412.593000", "144414.593000", "144416.593000", "144418.593000", "144420.593000", "144422.593000", "144424.593000", "144426.593000", "144428.593000", "144430.593000", "144432.593000", "144434.593000", "144436.593000", "144438.593000", "144440.593000", "144442.593000", "144444.593000", "144446.593000", "144448.593000", "144450.593000", "144452.593000", "144454.593000", "144456.593000", "144458.593000", "144500.593000", "144502.593000", "144504.578000", "144506.234000"],
      "InstanceCreationTime": ["143508.593000", "143510.578000", "143512.578000", "143514.578000", "143516.578000", "143518.578000", "143520.578000", "143522.578000", "143524.578000", "143526.578000", "143528.578000", "143530.578000", "143532.578000", "143534.578000", "143536.578000", "143538.578000", "143540.578000", "143542.578000", "143544.578000", "143546.578000", "143548.578000", "143550.578000", "143552.578000", "143554.578000", "143556.578000", "143558.578000", "143600.578000", "143602.578000", "143604.578000", "143606.578000", "143608.578000", "143610.578000", "143612.578000", "143614.578000", "143616.578000", "143618.578000", "143620.578000", "143622.578000", "143624.578000", "143626.578000", "143628.578000", "143630.578000", "143632.578000", "143634.578000", "143636.578000", "143638.578000", "143640.578000", "143642.578000", "143644.578000", "143646.578000", "143648.578000", "143650.578000", "143652.578000", "143654.578000", "143656.578000", "143658.578000", "143700.578000", "143702.578000", "143704.578000", "143706.578000", "143708.578000", "143710.578000", "143712.578000", "143714.578000", "143716.578000", "143718.578000", "143720.578000", "143722.578000", "143724.578000", "143726.578000", "143728.578000", "143730.578000", "143732.578000", "143734.578000", "143736.578000", "143738.578000", "143740.578000", "143742.578000", "143744.578000", "143746.578000", "143748.578000", "143750.578000", "143752.578000", "143754.578000", "143756.578000", "143758.578000", "143800.578000", "143802.578000", "143804.578000", "143806.578000", "143808.578000", "143810.578000", "143812.578000", "143814.578000", "143816.578000", "143818.578000", "143820.578000", "143822.578000", "143824.593000", "143826.578000", "143828.578000", "143830.578000", "143832.578000", "143834.578000", "143836.578000", "143838.578000", "143840.578000", "143842.578000", "143844.578000", "143846.578000", "143848.578000", "143850.578000", "143852.578000", "143854.578000", "143856.578000", "143858.578000", "143900.578000", "143902.578000", "143904.578000", "143906.578000", "143908.578000", "143910.578000", "143912.578000", "143914.578000", "143916.578000", "143918.578000", "143920.578000", "143922.578000", "143924.578000", "143926.578000", "143928.578000", "143930.578000", "143932.578000", "143934.578000", "143936.578000", "143938.578000", "143940.578000", "143942.578000", "143944.578000", "143946.578000", "143948.578000", "143950.578000", "143952.578000", "143954.578000", "143956.578000", "143958.578000", "144000.578000", "144002.578000", "144004.578000", "144006.578000", "144008.578000", "144010.578000", "144012.578000", "144014.578000", "144016.578000", "144018.578000", "144020.578000", "144022.578000", "144024.578000", "144026.578000", "144028.578000", "144030.578000", "144032.578000", "144034.578000", "144036.578000", "144038.578000", "144040.578000", "144042.578000", "144044.578000", "144046.578000", "144048.578000", "144050.578000", "144052.578000", "144054.578000", "144056.578000", "144058.578000", "144100.578000", "144102.578000", "144104.578000", "144106.578000", "144108.578000", "144110.578000", "144112.578000", "144114.578000", "144116.578000", "144118.578000", "144120.578000", "144122.578000", "144124.578000", "144126.578000", "144128.578000", "144130.578000", "144132.578000", "144134.578000", "144136.578000", "144138.578000", "144140.578000", "144142.593000", "144144.593000", "144146.593000", "144148.593000", "144150.593000", "144152.593000", "144154.593000", "144156.593000", "144158.593000", "144200.593000", "144202.593000", "144204.593000", "144206.593000", "144208.593000", "144210.593000", "144212.593000", "144214.578000", "144216.578000", "144218.593000", "144220.593000", "144222.593000", "144224.593000", "144226.593000", "144228.593000", "144230.593000", "144232.593000", "144234.593000", "144236.593000", "144238.593000", "144240.593000", "144242.593000", "144244.593000", "144246.593000", "144248.593000", "144250.593000", "144252.593000", "144254.593000", "144256.593000", "144258.593000", "144300.593000", "144302.593000", "144304.593000", "144306.593000", "144308.593000", "144310.593000", "144312.593000", "144314.593000", "144316.593000", "144318.593000", "144320.593000", "144322.593000", "144324.593000", "144326.593000", "144328.593000", "144330.593000", "144332.593000", "144334.593000", "144336.593000", "144338.593000", "144340.593000", "144342.593000", "144344.593000", "144346.593000", "144348.593000", "144350.593000", "144352.593000", "144354.593000", "144356.593000", "144358.593000", "144400.593000", "144402.593000", "144404.593000", "144406.593000", "144408.593000", "144410.593000", "144412.593000", "144414.593000", "144416.593000", "144418.593000", "144420.593000", "144422.593000", "144424.593000", "144426.593000", "144428.593000", "144430.593000", "144432.593000", "144434.593000", "144436.593000", "144438.593000", "144440.593000", "144442.593000", "144444.593000", "144446.593000", "144448.593000", "144450.593000", "144452.593000", "144454.593000", "144456.593000", "144458.593000", "144500.593000", "144502.593000", "144504.578000", "144506.234000"],
      "InstanceNumber": [1, 2, 3, 4, 5, 6, 7, 8, 9, 10, 11, 12, 13, 14, 15, 16, 17, 18, 19, 20, 21, 22, 23, 24, 25, 26, 27, 28, 29, 30, 31, 32, 33, 34, 35, 36, 37, 38, 39, 40, 41, 42, 43, 44, 45, 46, 47, 48, 49, 50, 51, 52, 53, 54, 55, 56, 57, 58, 59, 60, 61, 62, 63, 64, 65, 66, 67, 68, 69, 70, 71, 72, 73, 74, 75, 76, 77, 78, 79, 80, 81, 82, 83, 84, 85, 86, 87, 88, 89, 90, 91, 92, 93, 94, 95, 96, 97, 98, 99, 100, 101, 102, 103, 104, 105, 106, 107, 108, 109, 110, 111, 112, 113, 114, 115, 116, 117, 118, 119, 120, 121, 122, 123, 124, 125, 126, 127, 128, 129, 130, 131, 132, 133, 134, 135, 136, 137, 138, 139, 140, 141, 142, 143, 144, 145, 146, 147, 148, 149, 150, 151, 152, 153, 154, 155, 156, 157, 158, 159, 160, 161, 162, 163, 164, 165, 166, 167, 168, 169, 170, 171, 172, 173, 174, 175, 176, 177, 178, 179, 180, 181, 182, 183, 184, 185, 186, 187, 188, 189, 190, 191, 192, 193, 194, 195, 196, 197, 198, 199, 200, 201, 202, 203, 204, 205, 206, 207, 208, 209, 210, 211, 212, 213, 214, 215, 216, 217, 218, 219, 220, 221, 222, 223, 224, 225, 226, 227, 228, 229, 230, 231, 232, 233, 234, 235, 236, 237, 238, 239, 240, 241, 242, 243, 244, 245, 246, 247, 248, 249, 250, 251, 252, 253, 254, 255, 256, 257, 258, 259, 260, 261, 262, 263, 264, 265, 266, 267, 268, 269, 270, 271, 272, 273, 274, 275, 276, 277, 278, 279, 280, 281, 282, 283, 284, 285, 286, 287, 288, 289, 290, 291, 292, 293, 294, 295, 296, 297, 298, 299, 300],
      "LargestImagePixelValue": [1382, 1361, 1351, 1355, 1353, 1365, 1350, 1339, 1353, 1351, 1347, 1343, 1354, 1344, 1342, 1352, 1360, 1360, 1378, 1365, 1355, 1373, 1356, 1368, 1361, 1365, 1344, 1360, 1352, 1367, 1356, 1353, 1358, 1365, 1355, 1356, 1356, 1347, 1358, 1351, 1348, 1346, 1333, 1349, 1325, 1341, 1345, 1370, 1362, 1369, 1363, 1361, 1379, 1372, 1371, 1361, 1373, 1366, 1367, 1438, 1360, 1353, 1353, 1364, 1369, 1369, 1348, 1362, 1369, 1363, 1377, 1361, 1351, 1353, 1353, 1361, 1348, 1371, 1352, 1360, 1371, 1353, 1365, 1366, 1364, 1350, 1350, 1349, 1339, 1356, 1362, 1346, 1387, 1361, 1351, 1365, 1362, 1350, 1361, 1371, 1360, 1369, 1354, 1364, 1375, 1383, 1364, 1351, 1359, 1364, 1357, 1366, 1341, 1333, 1345, 1351, 1353, 1332, 1352, 1344, 1333, 1469, 1380, 1337, 1320, 1557, 1328, 1313, 1320, 1329, 1317, 1320, 1307, 1314, 1336, 1332, 1314, 1331, 1315, 1306, 1320, 1326, 1330, 1339, 1341, 1362, 1347, 1330, 1336, 1347, 1351, 1335, 1342, 1328, 1346, 1362, 1332, 1313, 1340, 1329, 1326, 1315, 1300, 1299, 1309, 1301, 1314, 1573, 1318, 1321, 1308, 1462, 1346, 1341, 1365, 1378, 1376, 1394, 1385, 1378, 1379, 1401, 1391, 1379, 1386, 1380, 1366, 1365, 1362, 1399, 1359, 1366, 1372, 1365, 1460, 1378, 1353, 1369, 1358, 1360, 1351, 1366, 1364, 1394, 1375, 1383, 1388, 1383, 1363, 1383, 1386, 1376, 1385, 1378, 1397, 1392, 1382, 1391, 1393, 1391, 1369, 1404, 1401, 1380, 1380, 1387, 1395, 1384, 1395, 1387, 1381, 1371, 1349, 1376, 1363, 1377, 1371, 1382, 1369, 1382, 1332, 1316, 1478, 1360, 1356, 1378, 1372, 1383, 1371, 1386, 1356, 1364, 1379, 1385, 1371, 1372, 1363, 1390, 1369, 1335, 1409, 1335, 1360, 1362, 1345, 1357, 1358, 1340, 1358, 1364, 1332, 1350, 1339, 1352, 1353, 1355, 1359, 1340, 1353, 1343, 1354, 1350, 1372, 1369, 1353, 1369, 1437, 1360, 1374, 1376, 1366, 1378, 1369, 1366, 1373, 1360, 1350, 1350, 1370, 1354],
      "WindowCenter": [637.0, 636.0, 637.0, 636.0, 635.0, 636.0, 636.0, 635.0, 635.0, 634.0, 634.0, 634.0, 635.0, 636.0, 637.0, 638.0, 636.0, 636.0, 636.0, 636.0, 635.0, 637.0, 637.0, 636.0, 637.0, 637.0, 637.0, 638.0, 638.0, 637.0, 638.0, 637.0, 637.0, 637.0, 636.0, 636.0, 637.0, 637.0, 638.0, 638.0, 635.0, 638.0, 636.0, 636.0, 636.0, 636.0, 637.0, 639.0, 639.0, 638.0, 639.0, 640.0, 639.0, 639.0, 639.0, 638.0, 639.0, 639.0, 633.0, 639.0, 638.0, 639.0, 640.0, 640.0, 639.0, 639.0, 639.0, 639.0, 639.0, 639.0, 640.0, 640.0, 638.0, 639.0, 639.0, 639.0, 639.0, 639.0, 639.0, 638.0, 639.0, 638.0, 639.0, 639.0, 638.0, 638.0, 639.0, 638.0, 638.0, 638.0, 637.0, 637.0, 638.0, 639.0, 639.0, 634.0, 639.0, 639.0, 639.0, 639.0, 640.0, 639.0, 639.0, 639.0, 639.0, 639.0, 638.0, 638.0, 638.0, 639.0, 639.0, 640.0, 638.0, 638.0, 637.0, 638.0, 639.0, 639.0, 639.0, 638.0, 635.0, 638.0, 639.0, 638.0, 638.0, 642.0, 640.0, 640.0, 638.0, 638.0, 637.0, 638.0, 638.0, 639.0, 640.0, 640.0, 639.0, 639.0, 638.0, 638.0, 639.0, 639.0, 640.0, 639.0, 639.0, 637.0, 640.0, 640.0, 640.0, 640.0, 640.0, 640.0, 639.0, 639.0, 640.0, 640.0, 640.0, 639.0, 639.0, 639.0, 639.0, 639.0, 638.0, 638.0, 638.0, 639.0, 633.0, 643.0, 639.0, 639.0, 639.0, 642.0, 639.0, 639.0, 639.0, 639.0, 640.0, 640.0, 639.0, 639.0, 639.0, 640.0, 640.0, 640.0, 639.0, 639.0, 638.0, 638.0, 639.0, 639.0, 639.0, 639.0, 640.0, 633.0, 640.0, 639.0, 640.0, 639.0, 640.0, 639.0, 639.0, 638.0, 639.0, 640.0, 639.0, 639.0, 639.0, 640.0, 639.0, 639.0, 638.0, 638.0, 638.0, 639.0, 640.0, 640.0, 640.0, 640.0, 641.0, 635.0, 639.0, 640.0, 640.0, 638.0, 637.0, 636.0, 637.0, 638.0, 638.0, 639.0, 639.0, 640.0, 639.0, 639.0, 638.0, 639.0, 639.0, 639.0, 640.0, 640.0, 639.0, 624.0, 645.0, 639.0, 639.0, 640.0, 640.0, 639.0, 640.0, 640.0, 639.0, 639.0, 639.0, 638.0, 639.0, 639.0, 639.0, 638.0, 637.0, 635.0, 639.0, 640.0, 640.0, 640.0, 639.0, 639.0, 640.0, 641.0, 641.0, 640.0, 640.0, 640.0, 639.0, 640.0, 640.0, 640.0, 640.0, 639.0, 641.0, 641.0, 640.0, 639.0, 640.0, 639.0, 639.0, 632.0, 642.0, 640.0, 640.0, 640.0, 639.0, 641.0, 640.0, 639.0, 639.0, 640.0, 640.0, 640.0, 639.0, 639.0],
