{
  "AcquisitionMatrixPE": 64,
  "AcquisitionNumber": 1,
  "AcquisitionTime": "12:39:21.790000",
  "BandwidthPerPixelPhaseEncode": 31.25,
  "BaseResolution": 64,
  "CoilCombinationMethod": "Sum of Squares",
  "CoilString": "C:HEA;HEP",
  "ConversionSoftware": "dcm2niix",
  "ConversionSoftwareVersion": "v1.0.20211006",
  "DerivedVendorReportedEchoSpacing": 0.0005,
  "DeviceSerialNumber": "35377",
  "DwellTime": 3.4e-06,
  "EchoTime": 0.03,
  "EffectiveEchoSpacing": 0.0005,
  "FlipAngle": 90,
  "ImageOrientationPatientDICOM": [0.999876, 0.015644, -0.00166877, -0.0157073, 0.998659, -0.0493336],
  "ImageOrientationText": "Tra>Cor(-2.8)>Sag(-0.1)",
  "ImageType": [
    "ORIGINAL",
    "PRIMARY",
    "M",
    "ND",
    "MOSAIC"
],
  "ImagingFrequency": 123.256,
  "InPlanePhaseEncodingDirectionDICOM": "COL",
  "InstitutionAddress": "Azinhaga Santa Comba StreetNo,Coimbra,District,PT,3000",
  "InstitutionName": "IBILI",
  "InstitutionalDepartmentName": "Department",
  "MRAcquisitionType": "2D",
  "MagneticFieldStrength": 3,
  "Manufacturer": "Siemens",
  "ManufacturersModelName": "TrioTim",
  "MatrixCoilMode": "SENSE",
  "Modality": "MR",
  "PartialFourier": 1,
  "PatientPosition": "HFS",
  "PercentPhaseFOV": 100,
  "PercentSampling": 100,
  "PhaseEncodingDirection": "j-",
  "PhaseEncodingSteps": 64,
  "PhaseResolution": 1,
  "PixelBandwidth": 2298,
  "ProcedureStepDescription": "Unknown",
  "ProtocolName": "rtfmri_neurofeedback_AvatarNofeedback",
  "PulseSequenceDetails": "%SiemensSeq%\\ep2d_bold",
  "ReceiveCoilName": "HeadMatrix",
  "ReconMatrixPE": 64,
  "RepetitionTime": 2,
  "SAR": 0.173844,
  "ScanOptions": "FS",
  "ScanningSequence": "EP",
  "SequenceName": "*epfid2d1_64",
  "SequenceVariant": "SK",
  "SeriesDescription": "rtfmri_neurofeedback_AvatarNofeedback",
  "SeriesNumber": 7,
  "ShimSetting": [15843, 7579, 21353, 684, 485, -193, 54, 44],
  "SliceThickness": 3,
  "SliceTiming": [0, 1.035, 0.06, 1.095, 0.1225, 1.155, 0.1825, 1.2175, 0.2425, 1.2775, 0.305, 1.3375, 0.365, 1.4, 0.425, 1.46, 0.4875, 1.52, 0.5475, 1.5825, 0.6075, 1.6425, 0.67, 1.7025, 0.73, 1.765, 0.79, 1.825, 0.8525, 1.885, 0.9125, 1.9475, 0.9725],
  "SoftwareVersions": "syngo MR B17",
  "SpacingBetweenSlices": 3,
  "StationName": "MRC35377",
  "TaskName": "nofeedback",
  "TotalReadoutTime": 0.0315,
  "TxRefAmp": 365.672,
  "dcmmeta_affine": [
    [-3.999505043029785, -0.0628291442990303, -0.0026842558290809393, 126.82969665527344],
    [-0.06257598847150803, 3.9946353435516357, -0.14806121587753296, -78.43739318847656],
    [-0.006675060838460922, 0.19733452796936035, 2.996342897415161, -52.07230758666992],
    [0.0, 0.0, 0.0, 1.0]
],
  "dcmmeta_reorient_transform": [
    [0.0, -1.0, 0.0, 63.0],
    [1.0, 0.0, 0.0, 0.0],
    [0.0, 0.0, 1.0, 0.0],
    [0.0, 0.0, 0.0, 1.0]
],
  "dcmmeta_shape": [64, 64, 33, 300],
  "dcmmeta_slice_dim": 2,
  "dcmmeta_version": 0.6,
  "global": {
    "const": {
      "AccessionNumber": "MRS20150129-0862",
      "AcquisitionMatrix": [64, 0, 0, 64],
      "Allergies": "MEDALERGIESL",
      "AngioFlag": "N",
      "BitsAllocated": 16,
      "BitsStored": 12,
      "Columns": 384,
      "EchoNumbers": 1,
      "EchoTime": 30.0,
      "EchoTrainLength": 1,
      "FlipAngle": 90.0,
      "HighBit": 11,
      "ImageOrientationPatient": [0.99987623262852, 0.01564399716738, -0.0016687651809, -0.0157072863228, 0.99865883763167, -0.0493336312928],
      "ImagePositionPatient": [-752.7395850638, -822.37844461835, -6.9987004627616],
      "ImageType": [
        "ORIGINAL",
        "PRIMARY",
        "M",
        "ND",
        "MOSAIC"
],
      "ImagedNucleus": "1H",
      "ImagingFrequency": 123.255658,
      "InPlanePhaseEncodingDirection": "COL",
      "MRAcquisitionType": "2D",
      "MagneticFieldStrength": 3.0,
      "Manufacturer": "SIEMENS",
      "ManufacturerModelName": "TrioTim",
      "MedicalAlerts": "MEDALERTS",
      "Modality": "MR",
      "NumberOfAverages": 1.0,
      "NumberOfPhaseEncodingSteps": 64,
      "PercentPhaseFieldOfView": 100.0,
      "PercentSampling": 100.0,
      "PerformedProcedureStepStartTime": "114910.796000",
      "PhotometricInterpretation": "MONOCHROME2",
      "PixelBandwidth": 2298.0,
      "PixelRepresentation": 0,
      "PixelSpacing": [4.0, 4.0],
      "ProtocolName": "rtfmri_neurofeedback_AvatarNofeedback",
      "RepetitionTime": 2000.0,
      "RequestAttributesSequence": [
        {
          "RequestedProcedureID": "0654d375-e35e-41",
          "ScheduledProcedureStepDescription": "Unknown",
          "ScheduledProcedureStepID": "0654d375-e35e-41"
        }
],
      "Rows": 384,
      "SAR": 0.17384423470893,
      "SamplesPerPixel": 1,
      "ScanOptions": "FS",
      "ScanningSequence": "EP",
      "SequenceName": "*epfid2d1_64",
      "SequenceVariant": "SK",
      "SeriesDescription": "rtfmri_neurofeedback_AvatarNofeedback",
      "SeriesNumber": 7,
      "SeriesTime": "123925.312000",
      "SliceLocation": -48.251133564774,
      "SliceThickness": 3.0,
      "SmallestImagePixelValue": 0,
      "SoftwareVersions": "syngo MR B17",
      "SpacingBetweenSlices": 3.0000000116813,
      "SpecificCharacterSet": "ISO_IR 100",
      "StudyID": "0654d375-e35e-41",
      "StudyTime": "114910.718000",
      "TransmitCoilName": "Body",
      "VariableFlipAngleFlag": "N",
      "WindowCenterWidthExplanation": "Algo1",
      "dBdt": 0.0},
    "slices": {}
  },
  "time": {
    "samples": {
      "AcquisitionNumber": [1, 2, 3, 4, 5, 6, 7, 8, 9, 10, 11, 12, 13, 14, 15, 16, 17, 18, 19, 20, 21, 22, 23, 24, 25, 26, 27, 28, 29, 30, 31, 32, 33, 34, 35, 36, 37, 38, 39, 40, 41, 42, 43, 44, 45, 46, 47, 48, 49, 50, 51, 52, 53, 54, 55, 56, 57, 58, 59, 60, 61, 62, 63, 64, 65, 66, 67, 68, 69, 70, 71, 72, 73, 74, 75, 76, 77, 78, 79, 80, 81, 82, 83, 84, 85, 86, 87, 88, 89, 90, 91, 92, 93, 94, 95, 96, 97, 98, 99, 100, 101, 102, 103, 104, 105, 106, 107, 108, 109, 110, 111, 112, 113, 114, 115, 116, 117, 118, 119, 120, 121, 122, 123, 124, 125, 126, 127, 128, 129, 130, 131, 132, 133, 134, 135, 136, 137, 138, 139, 140, 141, 142, 143, 144, 145, 146, 147, 148, 149, 150, 151, 152, 153, 154, 155, 156, 157, 158, 159, 160, 161, 162, 163, 164, 165, 166, 167, 168, 169, 170, 171, 172, 173, 174, 175, 176, 177, 178, 179, 180, 181, 182, 183, 184, 185, 186, 187, 188, 189, 190, 191, 192, 193, 194, 195, 196, 197, 198, 199, 200, 201, 202, 203, 204, 205, 206, 207, 208, 209, 210, 211, 212, 213, 214, 215, 216, 217, 218, 219, 220, 221, 222, 223, 224, 225, 226, 227, 228, 229, 230, 231, 232, 233, 234, 235, 236, 237, 238, 239, 240, 241, 242, 243, 244, 245, 246, 247, 248, 249, 250, 251, 252, 253, 254, 255, 256, 257, 258, 259, 260, 261, 262, 263, 264, 265, 266, 267, 268, 269, 270, 271, 272, 273, 274, 275, 276, 277, 278, 279, 280, 281, 282, 283, 284, 285, 286, 287, 288, 289, 290, 291, 292, 293, 294, 295, 296, 297, 298, 299, 300],
      "AcquisitionTime": ["123921.790000", "123923.797500", "123925.805000", "123927.815000", "123929.822500", "123931.830000", "123933.837500", "123935.845000", "123937.855000", "123939.862500", "123941.870000", "123943.877500", "123945.885000", "123947.895000", "123949.902500", "123951.910000", "123953.917500", "123955.927500", "123957.935000", "123959.942500", "124001.950000", "124003.957500", "124005.967500", "124007.975000", "124009.982500", "124011.990000", "124013.997500", "124016.007500", "124018.015000", "124020.022500", "124022.030000", "124024.040000", "124026.047500", "124028.055000", "124030.062500", "124032.070000", "124034.080000", "124036.087500", "124038.095000", "124040.102500", "124042.110000", "124044.120000", "124046.127500", "124048.135000", "124050.142500", "124052.152500", "124054.160000", "124056.167500", "124058.175000", "124100.182500", "124102.192500", "124104.200000", "124106.207500", "124108.215000", "124110.222500", "124112.232500", "124114.240000", "124116.247500", "124118.255000", "124120.262500", "124122.272500", "124124.280000", "124126.287500", "124128.295000", "124130.305000", "124132.312500", "124134.320000", "124136.327500", "124138.335000", "124140.345000", "124142.352500", "124144.360000", "124146.367500", "124148.375000", "124150.385000", "124152.392500", "124154.400000", "124156.407500", "124158.417500", "124200.425000", "124202.432500", "124204.440000", "124206.447500", "124208.457500", "124210.465000", "124212.472500", "124214.480000", "124216.487500", "124218.497500", "124220.505000", "124222.512500", "124224.520000", "124226.530000", "124228.537500", "124230.545000", "124232.552500", "124234.560000", "124236.570000", "124238.577500", "124240.585000", "124242.592500", "124244.600000", "124246.610000", "124248.617500", "124250.625000", "124252.632500", "124254.642500", "124256.650000", "124258.657500", "124300.665000", "124302.672500", "124304.682500", "124306.690000", "124308.697500", "124310.705000", "124312.712500", "124314.722500", "124316.730000", "124318.737500", "124320.745000", "124322.752500", "124324.762500", "124326.770000", "124328.777500", "124330.785000", "124332.795000", "124334.802500", "124336.810000", "124338.817500", "124340.825000", "124342.835000", "124344.842500", "124346.850000", "124348.857500", "124350.865000", "124352.875000", "124354.882500", "124356.890000", "124358.897500", "124400.907500", "124402.915000", "124404.922500", "124406.930000", "124408.937500", "124410.947500", "124412.955000", "124414.962500", "124416.970000", "124418.977500", "124420.987500", "124422.995000", "124425.002500", "124427.010000", "124429.020000", "124431.027500", "124433.035000", "124435.042500", "124437.050000", "124439.060000", "124441.067500", "124443.075000", "124445.082500", "124447.090000", "124449.100000", "124451.107500", "124453.115000", "124455.122500", "124457.130000", "124459.140000", "124501.147500", "124503.155000", "124505.162500", "124507.172500", "124509.180000", "124511.187500", "124513.195000", "124515.202500", "124517.212500", "124519.220000", "124521.227500", "124523.235000", "124525.242500", "124527.252500", "124529.260000", "124531.267500", "124533.275000", "124535.285000", "124537.292500", "124539.300000", "124541.307500", "124543.315000", "124545.325000", "124547.332500", "124549.340000", "124551.347500", "124553.355000", "124555.365000", "124557.372500", "124559.380000", "124601.387500", "124603.397500", "124605.405000", "124607.412500", "124609.420000", "124611.427500", "124613.437500", "124615.445000", "124617.452500", "124619.460000", "124621.467500", "124623.477500", "124625.485000", "124627.492500", "124629.500000", "124631.507500", "124633.517500", "124635.525000", "124637.532500", "124639.540000", "124641.550000", "124643.557500", "124645.565000", "124647.572500", "124649.580000", "124651.590000", "124653.597500", "124655.605000", "124657.612500", "124659.620000", "124701.630000", "124703.637500", "124705.645000", "124707.652500", "124709.662500", "124711.670000", "124713.677500", "124715.685000", "124717.692500", "124719.702500", "124721.710000", "124723.717500", "124725.725000", "124727.732500", "124729.742500", "124731.750000", "124733.757500", "124735.765000", "124737.775000", "124739.782500", "124741.790000", "124743.797500", "124745.805000", "124747.815000", "124749.822500", "124751.830000", "124753.837500", "124755.845000", "124757.855000", "124759.862500", "124801.870000", "124803.877500", "124805.885000", "124807.895000", "124809.902500", "124811.910000", "124813.917500", "124815.927500", "124817.935000", "124819.942500", "124821.950000", "124823.957500", "124825.967500", "124827.975000", "124829.982500", "124831.990000", "124833.997500", "124836.007500", "124838.015000", "124840.022500", "124842.030000", "124844.040000", "124846.047500", "124848.055000", "124850.062500", "124852.070000", "124854.080000", "124856.087500", "124858.095000", "124900.102500", "124902.110000", "124904.120000", "124906.127500", "124908.135000", "124910.142500", "124912.152500", "124914.160000", "124916.167500", "124918.175000", "124920.182500", "124922.192500"],
      "ContentTime": ["123925.312000", "123927.312000", "123929.312000", "123931.312000", "123933.312000", "123935.312000", "123937.312000", "123939.312000", "123941.312000", "123943.312000", "123945.312000", "123947.312000", "123949.312000", "123951.312000", "123953.312000", "123955.312000", "123957.312000", "123959.312000", "124001.312000", "124003.312000", "124005.312000", "124007.312000", "124009.312000", "124011.312000", "124013.312000", "124015.312000", "124017.312000", "124019.312000", "124021.312000", "124023.312000", "124025.312000", "124027.312000", "124029.312000", "124031.312000", "124033.312000", "124035.312000", "124037.312000", "124039.312000", "124041.312000", "124043.312000", "124045.312000", "124047.312000", "124049.312000", "124051.312000", "124053.312000", "124055.312000", "124057.312000", "124059.312000", "124101.312000", "124103.312000", "124105.312000", "124107.312000", "124109.312000", "124111.312000", "124113.312000", "124115.312000", "124117.312000", "124119.312000", "124121.312000", "124123.312000", "124125.312000", "124127.312000", "124129.312000", "124131.312000", "124133.312000", "124135.312000", "124137.312000", "124139.312000", "124141.312000", "124143.312000", "124145.312000", "124147.312000", "124149.312000", "124151.312000", "124153.312000", "124155.312000", "124157.312000", "124159.312000", "124201.312000", "124203.312000", "124205.312000", "124207.312000", "124209.312000", "124211.312000", "124213.312000", "124215.312000", "124217.312000", "124219.312000", "124221.312000", "124223.312000", "124225.312000", "124227.312000", "124229.312000", "124231.312000", "124233.312000", "124235.312000", "124237.312000", "124239.312000", "124241.312000", "124243.312000", "124245.312000", "124247.312000", "124249.312000", "124251.312000", "124253.312000", "124255.312000", "124257.312000", "124259.312000", "124301.312000", "124303.312000", "124305.312000", "124307.312000", "124309.312000", "124311.312000", "124313.312000", "124315.312000", "124317.312000", "124319.312000", "124321.312000", "124323.312000", "124325.312000", "124327.312000", "124329.312000", "124331.312000", "124333.312000", "124335.312000", "124337.312000", "124339.312000", "124341.312000", "124343.312000", "124345.312000", "124347.312000", "124349.312000", "124351.312000", "124353.312000", "124355.312000", "124357.312000", "124359.312000", "124401.312000", "124403.312000", "124405.312000", "124407.312000", "124409.312000", "124411.312000", "124413.312000", "124415.312000", "124417.312000", "124419.312000", "124421.312000", "124423.312000", "124425.312000", "124427.312000", "124429.312000", "124431.312000", "124433.312000", "124435.312000", "124437.312000", "124439.312000", "124441.312000", "124443.312000", "124445.312000", "124447.312000", "124449.312000", "124451.312000", "124453.312000", "124455.312000", "124457.312000", "124459.312000", "124501.312000", "124503.312000", "124505.312000", "124507.312000", "124509.312000", "124511.312000", "124513.312000", "124515.312000", "124517.312000", "124519.312000", "124521.312000", "124523.312000", "124525.312000", "124527.312000", "124529.312000", "124531.312000", "124533.312000", "124535.312000", "124537.312000", "124539.312000", "124541.312000", "124543.312000", "124545.312000", "124547.312000", "124549.312000", "124551.312000", "124553.312000", "124555.312000", "124557.312000", "124559.312000", "124601.312000", "124603.312000", "124605.312000", "124607.312000", "124609.312000", "124611.312000", "124613.312000", "124615.312000", "124617.312000", "124619.312000", "124621.312000", "124623.312000", "124625.312000", "124627.312000", "124629.312000", "124631.312000", "124633.312000", "124635.312000", "124637.312000", "124639.312000", "124641.312000", "124643.312000", "124645.312000", "124647.312000", "124649.312000", "124651.312000", "124653.312000", "124655.312000", "124657.312000", "124659.312000", "124701.312000", "124703.312000", "124705.312000", "124707.312000", "124709.312000", "124711.312000", "124713.312000", "124715.312000", "124717.312000", "124719.312000", "124721.312000", "124723.312000", "124725.312000", "124727.312000", "124729.312000", "124731.312000", "124733.312000", "124735.312000", "124737.312000", "124739.312000", "124741.312000", "124743.312000", "124745.312000", "124747.312000", "124749.312000", "124751.312000", "124753.312000", "124755.312000", "124757.312000", "124759.312000", "124801.312000", "124803.312000", "124805.312000", "124807.312000", "124809.312000", "124811.312000", "124813.312000", "124815.312000", "124817.312000", "124819.312000", "124821.312000", "124823.312000", "124825.312000", "124827.312000", "124829.312000", "124831.312000", "124833.312000", "124835.312000", "124837.312000", "124839.312000", "124841.312000", "124843.312000", "124845.312000", "124847.312000", "124849.312000", "124851.312000", "124853.312000", "124855.312000", "124857.312000", "124859.312000", "124901.312000", "124903.312000", "124905.312000", "124907.312000", "124909.312000", "124911.312000", "124913.312000", "124915.312000", "124917.312000", "124919.312000", "124921.312000", "124922.953000"],
      "InstanceCreationTime": ["123925.312000", "123927.312000", "123929.312000", "123931.312000", "123933.312000", "123935.312000", "123937.312000", "123939.312000", "123941.312000", "123943.312000", "123945.312000", "123947.312000", "123949.312000", "123951.312000", "123953.312000", "123955.312000", "123957.312000", "123959.312000", "124001.312000", "124003.312000", "124005.312000", "124007.312000", "124009.312000", "124011.312000", "124013.312000", "124015.312000", "124017.312000", "124019.312000", "124021.312000", "124023.312000", "124025.312000", "124027.312000", "124029.312000", "124031.312000", "124033.312000", "124035.312000", "124037.312000", "124039.312000", "124041.312000", "124043.312000", "124045.312000", "124047.312000", "124049.312000", "124051.312000", "124053.312000", "124055.312000", "124057.312000", "124059.312000", "124101.312000", "124103.312000", "124105.312000", "124107.312000", "124109.312000", "124111.312000", "124113.312000", "124115.312000", "124117.312000", "124119.312000", "124121.312000", "124123.312000", "124125.312000", "124127.312000", "124129.312000", "124131.312000", "124133.312000", "124135.312000", "124137.312000", "124139.312000", "124141.312000", "124143.312000", "124145.312000", "124147.312000", "124149.312000", "124151.312000", "124153.312000", "124155.312000", "124157.312000", "124159.312000", "124201.312000", "124203.312000", "124205.312000", "124207.312000", "124209.312000", "124211.312000", "124213.312000", "124215.312000", "124217.312000", "124219.312000", "124221.312000", "124223.312000", "124225.312000", "124227.312000", "124229.312000", "124231.312000", "124233.312000", "124235.312000", "124237.312000", "124239.312000", "124241.312000", "124243.312000", "124245.312000", "124247.312000", "124249.312000", "124251.312000", "124253.312000", "124255.312000", "124257.312000", "124259.312000", "124301.312000", "124303.312000", "124305.312000", "124307.312000", "124309.312000", "124311.312000", "124313.312000", "124315.312000", "124317.312000", "124319.312000", "124321.312000", "124323.312000", "124325.312000", "124327.312000", "124329.312000", "124331.312000", "124333.312000", "124335.312000", "124337.312000", "124339.312000", "124341.312000", "124343.312000", "124345.312000", "124347.312000", "124349.312000", "124351.312000", "124353.312000", "124355.312000", "124357.312000", "124359.312000", "124401.312000", "124403.312000", "124405.312000", "124407.312000", "124409.312000", "124411.312000", "124413.312000", "124415.312000", "124417.312000", "124419.312000", "124421.312000", "124423.312000", "124425.312000", "124427.312000", "124429.312000", "124431.312000", "124433.312000", "124435.312000", "124437.312000", "124439.312000", "124441.312000", "124443.312000", "124445.312000", "124447.312000", "124449.312000", "124451.312000", "124453.312000", "124455.312000", "124457.312000", "124459.312000", "124501.312000", "124503.312000", "124505.312000", "124507.312000", "124509.312000", "124511.312000", "124513.312000", "124515.312000", "124517.312000", "124519.312000", "124521.312000", "124523.312000", "124525.312000", "124527.312000", "124529.312000", "124531.312000", "124533.312000", "124535.312000", "124537.312000", "124539.312000", "124541.312000", "124543.312000", "124545.312000", "124547.312000", "124549.312000", "124551.312000", "124553.312000", "124555.312000", "124557.312000", "124559.312000", "124601.312000", "124603.312000", "124605.312000", "124607.312000", "124609.312000", "124611.312000", "124613.312000", "124615.312000", "124617.312000", "124619.312000", "124621.312000", "124623.312000", "124625.312000", "124627.312000", "124629.312000", "124631.312000", "124633.312000", "124635.312000", "124637.312000", "124639.312000", "124641.312000", "124643.312000", "124645.312000", "124647.312000", "124649.312000", "124651.312000", "124653.312000", "124655.312000", "124657.312000", "124659.312000", "124701.312000", "124703.312000", "124705.312000", "124707.312000", "124709.312000", "124711.312000", "124713.312000", "124715.312000", "124717.312000", "124719.312000", "124721.312000", "124723.312000", "124725.312000", "124727.312000", "124729.312000", "124731.312000", "124733.312000", "124735.312000", "124737.312000", "124739.312000", "124741.312000", "124743.312000", "124745.312000", "124747.312000", "124749.312000", "124751.312000", "124753.312000", "124755.312000", "124757.312000", "124759.312000", "124801.312000", "124803.312000", "124805.312000", "124807.312000", "124809.312000", "124811.312000", "124813.312000", "124815.312000", "124817.312000", "124819.312000", "124821.312000", "124823.312000", "124825.312000", "124827.312000", "124829.312000", "124831.312000", "124833.312000", "124835.312000", "124837.312000", "124839.312000", "124841.312000", "124843.312000", "124845.312000", "124847.312000", "124849.312000", "124851.312000", "124853.312000", "124855.312000", "124857.312000", "124859.312000", "124901.312000", "124903.312000", "124905.312000", "124907.312000", "124909.312000", "124911.312000", "124913.312000", "124915.312000", "124917.312000", "124919.312000", "124921.312000", "124922.953000"],
      "InstanceNumber": [1, 2, 3, 4, 5, 6, 7, 8, 9, 10, 11, 12, 13, 14, 15, 16, 17, 18, 19, 20, 21, 22, 23, 24, 25, 26, 27, 28, 29, 30, 31, 32, 33, 34, 35, 36, 37, 38, 39, 40, 41, 42, 43, 44, 45, 46, 47, 48, 49, 50, 51, 52, 53, 54, 55, 56, 57, 58, 59, 60, 61, 62, 63, 64, 65, 66, 67, 68, 69, 70, 71, 72, 73, 74, 75, 76, 77, 78, 79, 80, 81, 82, 83, 84, 85, 86, 87, 88, 89, 90, 91, 92, 93, 94, 95, 96, 97, 98, 99, 100, 101, 102, 103, 104, 105, 106, 107, 108, 109, 110, 111, 112, 113, 114, 115, 116, 117, 118, 119, 120, 121, 122, 123, 124, 125, 126, 127, 128, 129, 130, 131, 132, 133, 134, 135, 136, 137, 138, 139, 140, 141, 142, 143, 144, 145, 146, 147, 148, 149, 150, 151, 152, 153, 154, 155, 156, 157, 158, 159, 160, 161, 162, 163, 164, 165, 166, 167, 168, 169, 170, 171, 172, 173, 174, 175, 176, 177, 178, 179, 180, 181, 182, 183, 184, 185, 186, 187, 188, 189, 190, 191, 192, 193, 194, 195, 196, 197, 198, 199, 200, 201, 202, 203, 204, 205, 206, 207, 208, 209, 210, 211, 212, 213, 214, 215, 216, 217, 218, 219, 220, 221, 222, 223, 224, 225, 226, 227, 228, 229, 230, 231, 232, 233, 234, 235, 236, 237, 238, 239, 240, 241, 242, 243, 244, 245, 246, 247, 248, 249, 250, 251, 252, 253, 254, 255, 256, 257, 258, 259, 260, 261, 262, 263, 264, 265, 266, 267, 268, 269, 270, 271, 272, 273, 274, 275, 276, 277, 278, 279, 280, 281, 282, 283, 284, 285, 286, 287, 288, 289, 290, 291, 292, 293, 294, 295, 296, 297, 298, 299, 300],
      "LargestImagePixelValue": [1657, 1617, 1538, 1626, 1576, 1596, 1557, 1608, 1595, 1597, 1531, 1588, 1640, 1677, 1664, 1683, 1642, 1658, 1607, 1591, 1514, 1546, 1494, 1518, 1631, 1648, 1661, 1662, 1649, 1662, 1688, 1612, 1627, 1657, 1718, 1618, 1562, 1541, 1439, 1530, 1539, 1560, 1531, 1555, 1507, 1550, 1482, 1565, 1565, 1584, 1596, 1553, 1625, 1573, 1543, 1556, 1526, 1482, 1529, 1421, 1536, 1540, 1533, 1540, 1501, 1501, 1506, 1465, 1496, 1530, 1549, 1557, 1560, 1543, 1668, 1647, 1699, 1653, 1628, 1551, 1526, 1475, 1468, 1475, 1531, 1526, 1539, 1525, 1550, 1550, 1557, 1540, 1521, 1523, 1529, 1602, 1608, 1607, 1562, 1577, 1554, 1507, 1448, 1433, 1395, 1445, 1492, 1525, 1529, 1602, 1636, 1655, 1645, 1643, 1599, 1572, 1533, 1515, 1606, 1659, 1593, 1633, 1638, 1740, 1658, 1647, 1598, 1551, 1750, 1500, 1451, 1444, 1396, 1453, 1503, 1550, 1536, 1504, 1552, 1551, 1556, 1510, 1573, 1540, 1548, 1524, 1554, 1596, 1591, 1602, 1509, 1515, 1510, 1442, 1429, 1473, 1555, 1526, 1610, 1528, 1473, 1879, 1436, 1389, 1394, 1469, 1460, 1445, 1471, 1464, 1579, 1589, 1641, 1605, 1568, 1677, 1627, 1574, 1585, 1541, 1531, 1505, 1516, 1558, 1566, 1554, 1578, 1545, 1537, 1555, 1543, 1591, 1610, 1589, 1665, 1676, 1721, 1649, 1541, 1523, 1475, 1501, 1389, 1449, 1413, 1445, 1419, 1475, 1495, 1460, 1383, 1399, 1380, 1391, 1448, 1492, 1488, 1511, 1532, 1523, 1493, 1587, 1602, 1542, 1508, 1494, 1470, 1446, 1532, 1547, 1554, 1576, 1558, 1498, 1460, 1450, 1523, 1502, 1553, 1556, 1540, 1686, 1648, 1683, 1649, 1608, 1538, 1541, 1461, 1476, 1413, 1404, 1393, 1504, 1496, 1577, 1490, 1520, 1455, 1458, 1415, 1495, 1462, 1419, 1470, 1457, 1433, 1498, 1830, 1448, 1479, 1405, 1434, 1379, 1404, 1412, 1389, 1413, 1444, 1523, 1549, 1534, 1684, 1515, 1469, 1441, 1444, 1457, 1480, 1484, 1578, 1589, 1553, 1580, 1592, 1543, 1519, 1600, 1451, 1446],
      "WindowCenter": [665.0, 663.0, 662.0, 662.0, 662.0, 662.0, 662.0, 662.0, 662.0, 662.0, 661.0, 662.0, 663.0, 664.0, 664.0, 665.0, 664.0, 663.0, 661.0, 662.0, 662.0, 663.0, 662.0, 662.0, 663.0, 664.0, 664.0, 664.0, 663.0, 664.0, 665.0, 665.0, 664.0, 664.0, 663.0, 663.0, 661.0, 659.0, 658.0, 660.0, 661.0, 661.0, 660.0, 661.0, 660.0, 661.0, 660.0, 662.0, 663.0, 662.0, 662.0, 663.0, 664.0, 662.0, 661.0, 662.0, 661.0, 660.0, 660.0, 659.0, 662.0, 661.0, 661.0, 660.0, 659.0, 659.0, 659.0, 659.0, 660.0, 661.0, 661.0, 662.0, 663.0, 662.0, 665.0, 665.0, 665.0, 664.0, 663.0, 662.0, 661.0, 660.0, 659.0, 661.0, 662.0, 661.0, 661.0, 661.0, 662.0, 662.0, 662.0, 661.0, 662.0, 662.0, 663.0, 664.0, 664.0, 662.0, 662.0, 662.0, 660.0, 659.0, 658.0, 659.0, 658.0, 660.0, 661.0, 662.0, 662.0, 664.0, 665.0, 665.0, 665.0, 664.0, 663.0, 663.0, 662.0, 663.0, 665.0, 665.0, 663.0, 664.0, 666.0, 668.0, 665.0, 663.0, 662.0, 662.0, 661.0, 659.0, 658.0, 658.0, 658.0, 660.0, 661.0, 662.0, 662.0, 662.0, 663.0, 662.0, 663.0, 663.0, 664.0, 663.0, 662.0, 662.0, 664.0, 665.0, 663.0, 662.0, 661.0, 660.0, 660.0, 659.0, 658.0, 661.0, 663.0, 662.0, 662.0, 661.0, 659.0, 659.0, 656.0, 656.0, 657.0, 660.0, 660.0, 659.0, 660.0, 661.0, 664.0, 664.0, 664.0, 663.0, 663.0, 665.0, 664.0, 663.0, 663.0, 661.0, 660.0, 661.0, 662.0, 662.0, 662.0, 661.0, 662.0, 662.0, 662.0, 662.0, 664.0, 665.0, 665.0, 664.0, 666.0, 667.0, 667.0, 664.0, 662.0, 662.0, 660.0, 658.0, 657.0, 659.0, 658.0, 657.0, 658.0, 659.0, 658.0, 658.0, 657.0, 657.0, 657.0, 658.0, 660.0, 661.0, 660.0, 661.0, 661.0, 662.0, 662.0, 662.0, 663.0, 661.0, 660.0, 661.0, 661.0, 661.0, 663.0, 663.0, 663.0, 662.0, 662.0, 661.0, 661.0, 661.0, 662.0, 662.0, 663.0, 664.0, 664.0, 665.0, 666.0, 667.0, 665.0, 663.0, 662.0, 662.0, 661.0, 660.0, 659.0, 659.0, 660.0, 662.0, 662.0, 662.0, 661.0, 662.0, 661.0, 660.0, 660.0, 660.0, 661.0, 660.0, 659.0, 660.0, 660.0, 661.0, 662.0, 658.0, 658.0, 657.0, 656.0, 656.0, 656.0, 656.0, 657.0, 659.0, 661.0, 662.0, 662.0, 663.0, 663.0, 662.0, 660.0, 660.0, 661.0, 661.0, 661.0, 663.0, 665.0, 664.0, 663.0, 663.0, 664.0, 664.0, 662.0, 661.0, 659.0, 661.0],
