{
  "AcquisitionMatrixPE": 64,
  "AcquisitionNumber": 1,
  "AcquisitionTime": "11:52:33.767500",
  "BandwidthPerPixelPhaseEncode": 31.25,
  "BaseResolution": 64,
  "CoilCombinationMethod": "Sum of Squares",
  "CoilString": "C:HEA;HEP",
  "ConversionSoftware": "dcm2niix",
  "ConversionSoftwareVersion": "v1.0.20211006",
  "DerivedVendorReportedEchoSpacing": 0.0005,
  "DeviceSerialNumber": "35377",
  "DwellTime": 3.4e-06,
  "EchoTime": 0.03,
  "EffectiveEchoSpacing": 0.0005,
  "FlipAngle": 90,
  "ImageOrientationPatientDICOM": [0.998079, 0.0607862, -0.0119756, -0.0610452, 0.997879, -0.0226005],
  "ImageOrientationText": "Tra>Cor(-1.3)>Sag(-0.6)",
  "ImageType": [
    "ORIGINAL",
    "PRIMARY",
    "M",
    "ND",
    "MOSAIC"
],
  "ImagingFrequency": 123.256,
  "InPlanePhaseEncodingDirectionDICOM": "COL",
  "InstitutionAddress": "Azinhaga Santa Comba StreetNo,Coimbra,District,PT,3000",
  "InstitutionName": "ICNAS",
  "InstitutionalDepartmentName": "Department",
  "MRAcquisitionType": "2D",
  "MagneticFieldStrength": 3,
  "Manufacturer": "Siemens",
  "ManufacturersModelName": "TrioTim",
  "MatrixCoilMode": "SENSE",
  "Modality": "MR",
  "PartialFourier": 1,
  "PatientPosition": "HFS",
  "PercentPhaseFOV": 100,
  "PercentSampling": 100,
  "PhaseEncodingDirection": "j-",
  "PhaseEncodingSteps": 64,
  "PhaseResolution": 1,
  "PixelBandwidth": 2298,
  "ProcedureStepDescription": "Unknown",
  "ProtocolName": "rtfmri_neurofeedback_AvatarAuditivo",
  "PulseSequenceDetails": "%SiemensSeq%\\ep2d_bold",
  "ReceiveCoilName": "HeadMatrix",
  "ReconMatrixPE": 64,
  "RepetitionTime": 2,
  "SAR": 0.206145,
  "ScanOptions": "FS",
  "ScanningSequence": "EP",
  "SequenceName": "*epfid2d1_64",
  "SequenceVariant": "SK",
  "SeriesDescription": "rtfmri_neurofeedback_AvatarAuditivo",
  "SeriesNumber": 4,
  "ShimSetting": [15847, 7566, 21229, 501, 327, 108, -51, 46],
  "SliceThickness": 3,
  "SliceTiming": [0, 1.035, 0.06, 1.095, 0.1225, 1.155, 0.1825, 1.2175, 0.2425, 1.2775, 0.305, 1.3375, 0.365, 1.4, 0.425, 1.46, 0.4875, 1.52, 0.5475, 1.5825, 0.6075, 1.6425, 0.67, 1.7025, 0.73, 1.765, 0.79, 1.825, 0.8525, 1.885, 0.9125, 1.9475, 0.9725],
  "SoftwareVersions": "syngo MR B17",
  "SpacingBetweenSlices": 3,
  "StationName": "MRC35377",
  "TaskName": "auditoryfeedback",
  "TotalReadoutTime": 0.0315,
  "TxRefAmp": 388.315,
  "dcmmeta_affine": [
    [-3.9923157691955566, -0.24418073892593384, -0.03172919526696205, 135.73117065429688],
    [-0.24314472079277039, 3.991516351699829, -0.06986451894044876, -87.33373260498047],
    [-0.04790239408612251, 0.09040214866399765, 2.999018430709839, -71.18346405029297],
    [0.0, 0.0, 0.0, 1.0]
],
  "dcmmeta_reorient_transform": [
    [0.0, -1.0, 0.0, 63.0],
    [1.0, 0.0, 0.0, 0.0],
    [0.0, 0.0, 1.0, 0.0],
    [0.0, 0.0, 0.0, 1.0]
],
  "dcmmeta_shape": [64, 64, 33, 300],
  "dcmmeta_slice_dim": 2,
  "dcmmeta_version": 0.6,
  "global": {
    "const": {
      "AccessionNumber": "MRS20150331-0824",
      "AcquisitionMatrix": [64, 0, 0, 64],
      "Allergies": "MEDALERGIESL",
      "AngioFlag": "N",
      "BitsAllocated": 16,
      "BitsStored": 12,
      "Columns": 384,
      "EchoNumbers": 1,
      "EchoTime": 30.0,
      "EchoTrainLength": 1,
      "FlipAngle": 90.0,
      "HighBit": 11,
      "ImageOrientationPatient": [0.99807896739126, 0.06078618174252, -0.0119755985385, -0.0610451851763, 0.9978791014208, -0.022600537923],
      "ImagePositionPatient": [-720.04940021524, -841.67758380122, -43.359398962686],
      "ImageType": [
        "ORIGINAL",
        "PRIMARY",
        "M",
        "ND",
        "MOSAIC"
],
      "ImagedNucleus": "1H",
      "ImagingFrequency": 123.255637,
      "InPlanePhaseEncodingDirection": "COL",
      "MRAcquisitionType": "2D",
      "MagneticFieldStrength": 3.0,
      "Manufacturer": "SIEMENS",
      "ManufacturerModelName": "TrioTim",
      "MedicalAlerts": "MEDALERTS",
      "Modality": "MR",
      "NumberOfAverages": 1.0,
      "NumberOfPhaseEncodingSteps": 64,
      "PercentPhaseFieldOfView": 100.0,
      "PercentSampling": 100.0,
      "PerformedProcedureStepStartTime": "113441.421000",
      "PhotometricInterpretation": "MONOCHROME2",
      "PixelBandwidth": 2298.0,
      "PixelRepresentation": 0,
      "PixelSpacing": [4.0, 4.0],
      "ProtocolName": "rtfmri_neurofeedback_AvatarAuditivo",
      "RepetitionTime": 2000.0,
      "RequestAttributesSequence": [
        {
          "RequestedProcedureID": "36691848-2942-46",
          "ScheduledProcedureStepDescription": "Unknown",
          "ScheduledProcedureStepID": "36691848-2942-46"}
],
      "Rows": 384,
      "SAR": 0.20614537597833,
      "SamplesPerPixel": 1,
      "ScanOptions": "FS",
      "ScanningSequence": "EP",
      "SequenceName": "*epfid2d1_64",
      "SequenceVariant": "SK",
      "SeriesDescription": "rtfmri_neurofeedback_AvatarAuditivo",
      "SeriesNumber": 4,
      "SeriesTime": "115237.343000",
      "SliceLocation": -70.561877806689,
      "SliceThickness": 3.0,
      "SmallestImagePixelValue": 0,
      "SoftwareVersions": "syngo MR B17",
      "SpacingBetweenSlices": 2.9999998899718,
      "SpecificCharacterSet": "ISO_IR 100",
      "StudyID": "36691848-2942-46",
      "StudyTime": "113440.875000",
      "TransmitCoilName": "Body",
      "VariableFlipAngleFlag": "N",
      "WindowCenterWidthExplanation": "Algo1",
      "dBdt": 0.0},
    "slices": {}
  },
  "time": {
    "samples": {
      "AcquisitionNumber": [1, 2, 3, 4, 5, 6, 7, 8, 9, 10, 11, 12, 13, 14, 15, 16, 17, 18, 19, 20, 21, 22, 23, 24, 25, 26, 27, 28, 29, 30, 31, 32, 33, 34, 35, 36, 37, 38, 39, 40, 41, 42, 43, 44, 45, 46, 47, 48, 49, 50, 51, 52, 53, 54, 55, 56, 57, 58, 59, 60, 61, 62, 63, 64, 65, 66, 67, 68, 69, 70, 71, 72, 73, 74, 75, 76, 77, 78, 79, 80, 81, 82, 83, 84, 85, 86, 87, 88, 89, 90, 91, 92, 93, 94, 95, 96, 97, 98, 99, 100, 101, 102, 103, 104, 105, 106, 107, 108, 109, 110, 111, 112, 113, 114, 115, 116, 117, 118, 119, 120, 121, 122, 123, 124, 125, 126, 127, 128, 129, 130, 131, 132, 133, 134, 135, 136, 137, 138, 139, 140, 141, 142, 143, 144, 145, 146, 147, 148, 149, 150, 151, 152, 153, 154, 155, 156, 157, 158, 159, 160, 161, 162, 163, 164, 165, 166, 167, 168, 169, 170, 171, 172, 173, 174, 175, 176, 177, 178, 179, 180, 181, 182, 183, 184, 185, 186, 187, 188, 189, 190, 191, 192, 193, 194, 195, 196, 197, 198, 199, 200, 201, 202, 203, 204, 205, 206, 207, 208, 209, 210, 211, 212, 213, 214, 215, 216, 217, 218, 219, 220, 221, 222, 223, 224, 225, 226, 227, 228, 229, 230, 231, 232, 233, 234, 235, 236, 237, 238, 239, 240, 241, 242, 243, 244, 245, 246, 247, 248, 249, 250, 251, 252, 253, 254, 255, 256, 257, 258, 259, 260, 261, 262, 263, 264, 265, 266, 267, 268, 269, 270, 271, 272, 273, 274, 275, 276, 277, 278, 279, 280, 281, 282, 283, 284, 285, 286, 287, 288, 289, 290, 291, 292, 293, 294, 295, 296, 297, 298, 299, 300],
      "AcquisitionTime": ["115233.767500", "115235.775000", "115237.782500", "115239.792500", "115241.800000", "115243.807500", "115245.815000", "115247.822500", "115249.832500", "115251.840000", "115253.847500", "115255.855000", "115257.865000", "115259.872500", "115301.880000", "115303.887500", "115305.895000", "115307.905000", "115309.912500", "115311.920000", "115313.927500", "115315.935000", "115317.945000", "115319.952500", "115321.960000", "115323.967500", "115325.977500", "115327.985000", "115329.992500", "115332.000000", "115334.007500", "115336.017500", "115338.025000", "115340.032500", "115342.040000", "115344.047500", "115346.057500", "115348.065000", "115350.072500", "115352.080000", "115354.087500", "115356.097500", "115358.105000", "115400.112500", "115402.120000", "115404.130000", "115406.137500", "115408.145000", "115410.152500", "115412.160000", "115414.170000", "115416.177500", "115418.185000", "115420.192500", "115422.200000", "115424.210000", "115426.217500", "115428.225000", "115430.232500", "115432.242500", "115434.250000", "115436.257500", "115438.265000", "115440.272500", "115442.282500", "115444.290000", "115446.297500", "115448.305000", "115450.312500", "115452.322500", "115454.330000", "115456.337500", "115458.345000", "115500.355000", "115502.362500", "115504.370000", "115506.377500", "115508.385000", "115510.395000", "115512.402500", "115514.410000", "115516.417500", "115518.425000", "115520.435000", "115522.442500", "115524.450000", "115526.457500", "115528.467500", "115530.475000", "115532.482500", "115534.490000", "115536.497500", "115538.507500", "115540.515000", "115542.522500", "115544.530000", "115546.537500", "115548.547500", "115550.555000", "115552.562500", "115554.570000", "115556.577500", "115558.587500", "115600.595000", "115602.602500", "115604.610000", "115606.620000", "115608.627500", "115610.635000", "115612.642500", "115614.650000", "115616.660000", "115618.667500", "115620.675000", "115622.682500", "115624.690000", "115626.700000", "115628.707500", "115630.715000", "115632.722500", "115634.732500", "115636.740000", "115638.747500", "115640.755000", "115642.762500", "115644.772500", "115646.780000", "115648.787500", "115650.795000", "115652.802500", "115654.812500", "115656.820000", "115658.827500", "115700.835000", "115702.845000", "115704.852500", "115706.860000", "115708.867500", "115710.875000", "115712.885000", "115714.892500", "115716.900000", "115718.907500", "115720.915000", "115722.925000", "115724.932500", "115726.940000", "115728.947500", "115730.955000", "115732.965000", "115734.972500", "115736.980000", "115738.987500", "115740.997500", "115743.005000", "115745.012500", "115747.020000", "115749.027500", "115751.037500", "115753.045000", "115755.052500", "115757.060000", "115759.067500", "115801.077500", "115803.085000", "115805.092500", "115807.100000", "115809.110000", "115811.117500", "115813.125000", "115815.132500", "115817.140000", "115819.150000", "115821.157500", "115823.165000", "115825.172500", "115827.180000", "115829.190000", "115831.197500", "115833.205000", "115835.212500", "115837.222500", "115839.230000", "115841.237500", "115843.245000", "115845.252500", "115847.262500", "115849.270000", "115851.277500", "115853.285000", "115855.292500", "115857.302500", "115859.310000", "115901.317500", "115903.325000", "115905.332500", "115907.342500", "115909.350000", "115911.357500", "115913.365000", "115915.375000", "115917.382500", "115919.390000", "115921.397500", "115923.405000", "115925.415000", "115927.422500", "115929.430000", "115931.437500", "115933.445000", "115935.455000", "115937.462500", "115939.470000", "115941.477500", "115943.487500", "115945.495000", "115947.502500", "115949.510000", "115951.517500", "115953.527500", "115955.535000", "115957.542500", "115959.550000", "120001.557500", "120003.567500", "120005.575000", "120007.582500", "120009.590000", "120011.600000", "120013.607500", "120015.615000", "120017.622500", "120019.630000", "120021.640000", "120023.647500", "120025.655000", "120027.662500", "120029.670000", "120031.680000", "120033.687500", "120035.695000", "120037.702500", "120039.710000", "120041.720000", "120043.727500", "120045.735000", "120047.742500", "120049.752500", "120051.760000", "120053.767500", "120055.775000", "120057.782500", "120059.792500", "120101.800000", "120103.807500", "120105.815000", "120107.822500", "120109.832500", "120111.840000", "120113.847500", "120115.855000", "120117.865000", "120119.872500", "120121.880000", "120123.887500", "120125.895000", "120127.905000", "120129.912500", "120131.920000", "120133.927500", "120135.935000", "120137.945000", "120139.952500", "120141.960000", "120143.967500", "120145.977500", "120147.985000", "120149.992500", "120152.000000", "120154.007500", "120156.017500", "120158.025000", "120200.032500", "120202.040000", "120204.047500", "120206.057500", "120208.065000", "120210.072500", "120212.080000", "120214.087500", "120216.097500", "120218.105000", "120220.112500", "120222.120000", "120224.130000", "120226.137500", "120228.145000", "120230.152500", "120232.160000", "120234.170000"],
      "ContentTime": ["115237.359000", "115239.343000", "115241.343000", "115243.343000", "115245.343000", "115247.343000", "115249.343000", "115251.343000", "115253.343000", "115255.343000", "115257.343000", "115259.343000", "115301.343000", "115303.343000", "115305.343000", "115307.343000", "115309.343000", "115311.343000", "115313.343000", "115315.343000", "115317.343000", "115319.343000", "115321.343000", "115323.343000", "115325.343000", "115327.343000", "115329.343000", "115331.343000", "115333.343000", "115335.343000", "115337.343000", "115339.343000", "115341.343000", "115343.343000", "115345.343000", "115347.343000", "115349.343000", "115351.343000", "115353.343000", "115355.343000", "115357.343000", "115359.343000", "115401.343000", "115403.343000", "115405.343000", "115407.343000", "115409.343000", "115411.343000", "115413.343000", "115415.343000", "115417.343000", "115419.343000", "115421.343000", "115423.343000", "115425.343000", "115427.343000", "115429.343000", "115431.343000", "115433.343000", "115435.343000", "115437.343000", "115439.343000", "115441.343000", "115443.343000", "115445.343000", "115447.343000", "115449.343000", "115451.343000", "115453.343000", "115455.343000", "115457.343000", "115459.343000", "115501.343000", "115503.343000", "115505.343000", "115507.343000", "115509.343000", "115511.343000", "115513.343000", "115515.343000", "115517.343000", "115519.343000", "115521.343000", "115523.343000", "115525.343000", "115527.343000", "115529.343000", "115531.343000", "115533.343000", "115535.343000", "115537.343000", "115539.343000", "115541.343000", "115543.343000", "115545.343000", "115547.343000", "115549.343000", "115551.343000", "115553.343000", "115555.343000", "115557.343000", "115559.343000", "115601.343000", "115603.343000", "115605.343000", "115607.343000", "115609.343000", "115611.343000", "115613.343000", "115615.343000", "115617.343000", "115619.343000", "115621.343000", "115623.343000", "115625.343000", "115627.343000", "115629.343000", "115631.343000", "115633.343000", "115635.343000", "115637.343000", "115639.343000", "115641.343000", "115643.343000", "115645.343000", "115647.343000", "115649.343000", "115651.343000", "115653.343000", "115655.343000", "115657.343000", "115659.343000", "115701.343000", "115703.343000", "115705.343000", "115707.343000", "115709.343000", "115711.343000", "115713.343000", "115715.343000", "115717.343000", "115719.343000", "115721.343000", "115723.343000", "115725.343000", "115727.343000", "115729.343000", "115731.343000", "115733.343000", "115735.343000", "115737.343000", "115739.343000", "115741.343000", "115743.343000", "115745.343000", "115747.343000", "115749.343000", "115751.343000", "115753.343000", "115755.343000", "115757.343000", "115759.343000", "115801.343000", "115803.343000", "115805.343000", "115807.343000", "115809.343000", "115811.343000", "115813.343000", "115815.343000", "115817.343000", "115819.343000", "115821.343000", "115823.343000", "115825.343000", "115827.343000", "115829.343000", "115831.343000", "115833.343000", "115835.343000", "115837.343000", "115839.343000", "115841.343000", "115843.343000", "115845.343000", "115847.343000", "115849.343000", "115851.343000", "115853.343000", "115855.343000", "115857.343000", "115859.343000", "115901.343000", "115903.343000", "115905.343000", "115907.343000", "115909.343000", "115911.343000", "115913.343000", "115915.343000", "115917.343000", "115919.343000", "115921.343000", "115923.343000", "115925.343000", "115927.343000", "115929.343000", "115931.343000", "115933.343000", "115935.343000", "115937.343000", "115939.343000", "115941.343000", "115943.343000", "115945.343000", "115947.343000", "115949.343000", "115951.343000", "115953.343000", "115955.343000", "115957.343000", "115959.343000", "120001.343000", "120003.343000", "120005.343000", "120007.343000", "120009.343000", "120011.343000", "120013.343000", "120015.343000", "120017.343000", "120019.343000", "120021.343000", "120023.343000", "120025.343000", "120027.343000", "120029.343000", "120031.343000", "120033.343000", "120035.343000", "120037.343000", "120039.343000", "120041.343000", "120043.343000", "120045.343000", "120047.343000", "120049.343000", "120051.343000", "120053.343000", "120055.343000", "120057.343000", "120059.343000", "120101.343000", "120103.343000", "120105.343000", "120107.343000", "120109.343000", "120111.343000", "120113.343000", "120115.343000", "120117.343000", "120119.343000", "120121.343000", "120123.343000", "120125.343000", "120127.343000", "120129.343000", "120131.343000", "120133.343000", "120135.343000", "120137.343000", "120139.343000", "120141.343000", "120143.343000", "120145.343000", "120147.343000", "120149.343000", "120151.343000", "120153.343000", "120155.343000", "120157.343000", "120159.343000", "120201.343000", "120203.343000", "120205.343000", "120207.343000", "120209.343000", "120211.343000", "120213.343000", "120215.343000", "120217.343000", "120219.343000", "120221.343000", "120223.343000", "120225.343000", "120227.343000", "120229.343000", "120231.343000", "120233.343000", "120234.953000"],
      "InstanceCreationTime": ["115237.359000", "115239.343000", "115241.343000", "115243.343000", "115245.343000", "115247.343000", "115249.343000", "115251.343000", "115253.343000", "115255.343000", "115257.343000", "115259.343000", "115301.343000", "115303.343000", "115305.343000", "115307.343000", "115309.343000", "115311.343000", "115313.343000", "115315.343000", "115317.343000", "115319.343000", "115321.343000", "115323.343000", "115325.343000", "115327.343000", "115329.343000", "115331.343000", "115333.343000", "115335.343000", "115337.343000", "115339.343000", "115341.343000", "115343.343000", "115345.343000", "115347.343000", "115349.343000", "115351.343000", "115353.343000", "115355.343000", "115357.343000", "115359.343000", "115401.343000", "115403.343000", "115405.343000", "115407.343000", "115409.343000", "115411.343000", "115413.343000", "115415.343000", "115417.343000", "115419.343000", "115421.343000", "115423.343000", "115425.343000", "115427.343000", "115429.343000", "115431.343000", "115433.343000", "115435.343000", "115437.343000", "115439.343000", "115441.343000", "115443.343000", "115445.343000", "115447.343000", "115449.343000", "115451.343000", "115453.343000", "115455.343000", "115457.343000", "115459.343000", "115501.343000", "115503.343000", "115505.343000", "115507.343000", "115509.343000", "115511.343000", "115513.343000", "115515.343000", "115517.343000", "115519.343000", "115521.343000", "115523.343000", "115525.343000", "115527.343000", "115529.343000", "115531.343000", "115533.343000", "115535.343000", "115537.343000", "115539.343000", "115541.343000", "115543.343000", "115545.343000", "115547.343000", "115549.343000", "115551.343000", "115553.343000", "115555.343000", "115557.343000", "115559.343000", "115601.343000", "115603.343000", "115605.343000", "115607.343000", "115609.343000", "115611.343000", "115613.343000", "115615.343000", "115617.343000", "115619.343000", "115621.343000", "115623.343000", "115625.343000", "115627.343000", "115629.343000", "115631.343000", "115633.343000", "115635.343000", "115637.343000", "115639.343000", "115641.343000", "115643.343000", "115645.343000", "115647.343000", "115649.343000", "115651.343000", "115653.343000", "115655.343000", "115657.343000", "115659.343000", "115701.343000", "115703.343000", "115705.343000", "115707.343000", "115709.343000", "115711.343000", "115713.343000", "115715.343000", "115717.343000", "115719.343000", "115721.343000", "115723.343000", "115725.343000", "115727.343000", "115729.343000", "115731.343000", "115733.343000", "115735.343000", "115737.343000", "115739.343000", "115741.343000", "115743.343000", "115745.343000", "115747.343000", "115749.343000", "115751.343000", "115753.343000", "115755.343000", "115757.343000", "115759.343000", "115801.343000", "115803.343000", "115805.343000", "115807.343000", "115809.343000", "115811.343000", "115813.343000", "115815.343000", "115817.343000", "115819.343000", "115821.343000", "115823.343000", "115825.343000", "115827.343000", "115829.343000", "115831.343000", "115833.343000", "115835.343000", "115837.343000", "115839.343000", "115841.343000", "115843.343000", "115845.343000", "115847.343000", "115849.343000", "115851.343000", "115853.343000", "115855.343000", "115857.343000", "115859.343000", "115901.343000", "115903.343000", "115905.343000", "115907.343000", "115909.343000", "115911.343000", "115913.343000", "115915.343000", "115917.343000", "115919.343000", "115921.343000", "115923.343000", "115925.343000", "115927.343000", "115929.343000", "115931.343000", "115933.343000", "115935.343000", "115937.343000", "115939.343000", "115941.343000", "115943.343000", "115945.343000", "115947.343000", "115949.343000", "115951.343000", "115953.343000", "115955.343000", "115957.343000", "115959.343000", "120001.343000", "120003.343000", "120005.343000", "120007.343000", "120009.343000", "120011.343000", "120013.343000", "120015.343000", "120017.343000", "120019.343000", "120021.343000", "120023.343000", "120025.343000", "120027.343000", "120029.343000", "120031.343000", "120033.343000", "120035.343000", "120037.343000", "120039.343000", "120041.343000", "120043.343000", "120045.343000", "120047.343000", "120049.343000", "120051.343000", "120053.343000", "120055.343000", "120057.343000", "120059.343000", "120101.343000", "120103.343000", "120105.343000", "120107.343000", "120109.343000", "120111.343000", "120113.343000", "120115.343000", "120117.343000", "120119.343000", "120121.343000", "120123.343000", "120125.343000", "120127.343000", "120129.343000", "120131.343000", "120133.343000", "120135.343000", "120137.343000", "120139.343000", "120141.343000", "120143.343000", "120145.343000", "120147.343000", "120149.343000", "120151.343000", "120153.343000", "120155.343000", "120157.343000", "120159.343000", "120201.343000", "120203.343000", "120205.343000", "120207.343000", "120209.343000", "120211.343000", "120213.343000", "120215.343000", "120217.343000", "120219.343000", "120221.343000", "120223.343000", "120225.343000", "120227.343000", "120229.343000", "120231.343000", "120233.343000", "120234.953000"],
      "InstanceNumber": [1, 2, 3, 4, 5, 6, 7, 8, 9, 10, 11, 12, 13, 14, 15, 16, 17, 18, 19, 20, 21, 22, 23, 24, 25, 26, 27, 28, 29, 30, 31, 32, 33, 34, 35, 36, 37, 38, 39, 40, 41, 42, 43, 44, 45, 46, 47, 48, 49, 50, 51, 52, 53, 54, 55, 56, 57, 58, 59, 60, 61, 62, 63, 64, 65, 66, 67, 68, 69, 70, 71, 72, 73, 74, 75, 76, 77, 78, 79, 80, 81, 82, 83, 84, 85, 86, 87, 88, 89, 90, 91, 92, 93, 94, 95, 96, 97, 98, 99, 100, 101, 102, 103, 104, 105, 106, 107, 108, 109, 110, 111, 112, 113, 114, 115, 116, 117, 118, 119, 120, 121, 122, 123, 124, 125, 126, 127, 128, 129, 130, 131, 132, 133, 134, 135, 136, 137, 138, 139, 140, 141, 142, 143, 144, 145, 146, 147, 148, 149, 150, 151, 152, 153, 154, 155, 156, 157, 158, 159, 160, 161, 162, 163, 164, 165, 166, 167, 168, 169, 170, 171, 172, 173, 174, 175, 176, 177, 178, 179, 180, 181, 182, 183, 184, 185, 186, 187, 188, 189, 190, 191, 192, 193, 194, 195, 196, 197, 198, 199, 200, 201, 202, 203, 204, 205, 206, 207, 208, 209, 210, 211, 212, 213, 214, 215, 216, 217, 218, 219, 220, 221, 222, 223, 224, 225, 226, 227, 228, 229, 230, 231, 232, 233, 234, 235, 236, 237, 238, 239, 240, 241, 242, 243, 244, 245, 246, 247, 248, 249, 250, 251, 252, 253, 254, 255, 256, 257, 258, 259, 260, 261, 262, 263, 264, 265, 266, 267, 268, 269, 270, 271, 272, 273, 274, 275, 276, 277, 278, 279, 280, 281, 282, 283, 284, 285, 286, 287, 288, 289, 290, 291, 292, 293, 294, 295, 296, 297, 298, 299, 300],
      "LargestImagePixelValue": [1469, 1462, 1469, 1479, 1479, 1452, 1464, 1474, 1473, 1464, 1461, 1474, 1475, 1488, 1472, 1504, 1585, 1478, 1479, 1477, 1473, 1469, 1458, 1470, 1462, 1470, 1493, 1486, 1477, 1476, 1537, 1497, 1468, 1469, 1468, 1463, 1458, 1493, 1482, 1521, 1465, 1489, 1520, 1514, 1472, 1475, 1455, 1497, 1511, 1473, 1466, 1487, 1465, 1467, 1496, 1470, 1468, 1474, 1481, 1462, 1471, 1501, 1509, 1488, 1477, 1456, 1521, 1499, 1495, 1580, 1447, 1446, 1514, 1477, 1482, 1579, 1485, 1546, 1509, 1523, 1472, 1460, 1450, 1461, 1453, 1458, 1472, 1466, 1528, 1431, 1472, 1482, 1500, 1444, 1533, 1482, 1552, 1464, 1506, 1467, 1545, 1501, 1465, 1500, 1474, 1479, 1507, 1490, 1464, 1447, 1458, 1473, 1469, 1488, 1510, 1537, 1455, 1531, 1438, 1434, 1455, 1457, 1477, 1495, 1463, 1498, 1445, 1473, 1463, 1446, 1460, 1497, 1458, 1448, 1477, 1475, 1479, 1585, 1497, 1500, 1465, 1455, 1470, 1435, 1448, 1462, 1470, 1471, 1473, 1445, 1480, 1454, 1460, 1488, 1460, 1457, 1448, 1465, 1479, 1476, 1491, 1441, 1452, 1449, 1475, 1451, 1460, 1497, 1464, 1482, 1497, 1467, 1469, 1462, 1472, 1461, 1462, 1468, 1447, 1476, 1475, 1459, 1498, 1557, 1589, 1535, 1465, 1464, 1458, 1478, 1470, 1479, 1483, 1493, 1496, 1512, 1473, 1474, 1466, 1483, 1532, 1479, 1477, 1485, 1494, 1471, 1504, 1513, 1506, 1486, 1487, 1466, 1486, 1461, 1457, 1475, 1472, 1475, 1487, 1500, 1487, 1464, 1455, 1470, 1487, 1476, 1492, 1471, 1484, 1492, 1509, 1515, 1506, 1492, 1498, 1481, 1491, 1495, 1467, 1461, 1483, 1471, 1494, 1496, 1491, 1475, 1467, 1470, 1479, 1459, 1469, 1474, 1486, 1479, 1496, 1498, 1500, 1465, 1473, 1471, 1484, 1471, 1465, 1479, 1473, 1481, 1497, 1516, 1521, 1486, 1456, 1475, 1468, 1498, 1498, 1487, 1482, 1461, 1505, 1526, 1509, 1482, 1468, 1476, 1476, 1450, 1453, 1466, 1483, 1489, 1480, 1498, 1497, 1472, 1462, 1464, 1468, 1465, 1449, 1467],
      "WindowCenter": [630.0, 630.0, 629.0, 630.0, 629.0, 628.0, 628.0, 628.0, 628.0, 628.0, 628.0, 630.0, 629.0, 630.0, 631.0, 632.0, 632.0, 630.0, 630.0, 630.0, 630.0, 630.0, 630.0, 631.0, 631.0, 631.0, 631.0, 630.0, 631.0, 631.0, 632.0, 631.0, 631.0, 630.0, 630.0, 630.0, 630.0, 631.0, 631.0, 632.0, 631.0, 631.0, 631.0, 630.0, 630.0, 630.0, 631.0, 631.0, 631.0, 630.0, 630.0, 631.0, 630.0, 630.0, 630.0, 630.0, 630.0, 630.0, 630.0, 630.0, 630.0, 630.0, 631.0, 631.0, 631.0, 630.0, 630.0, 630.0, 631.0, 630.0, 629.0, 629.0, 630.0, 629.0, 631.0, 631.0, 631.0, 631.0, 630.0, 630.0, 630.0, 630.0, 630.0, 630.0, 630.0, 629.0, 630.0, 630.0, 630.0, 628.0, 629.0, 628.0, 629.0, 628.0, 630.0, 629.0, 630.0, 628.0, 629.0, 629.0, 631.0, 631.0, 629.0, 629.0, 629.0, 629.0, 629.0, 628.0, 628.0, 628.0, 629.0, 629.0, 629.0, 629.0, 630.0, 629.0, 629.0, 629.0, 628.0, 627.0, 628.0, 628.0, 629.0, 629.0, 629.0, 629.0, 628.0, 629.0, 629.0, 628.0, 628.0, 628.0, 628.0, 628.0, 629.0, 630.0, 631.0, 630.0, 629.0, 628.0, 629.0, 629.0, 629.0, 628.0, 628.0, 628.0, 628.0, 629.0, 630.0, 629.0, 629.0, 629.0, 630.0, 629.0, 629.0, 628.0, 628.0, 629.0, 630.0, 629.0, 629.0, 628.0, 629.0, 629.0, 629.0, 628.0, 628.0, 629.0, 629.0, 629.0, 630.0, 629.0, 629.0, 630.0, 630.0, 629.0, 629.0, 629.0, 629.0, 630.0, 630.0, 630.0, 631.0, 632.0, 631.0, 630.0, 630.0, 630.0, 629.0, 629.0, 630.0, 630.0, 630.0, 630.0, 630.0, 630.0, 629.0, 629.0, 629.0, 629.0, 630.0, 630.0, 631.0, 630.0, 630.0, 629.0, 630.0, 631.0, 631.0, 630.0, 629.0, 629.0, 629.0, 629.0, 629.0, 630.0, 629.0, 629.0, 629.0, 629.0, 629.0, 630.0, 629.0, 629.0, 629.0, 629.0, 630.0, 630.0, 630.0, 630.0, 631.0, 631.0, 631.0, 630.0, 630.0, 630.0, 630.0, 630.0, 630.0, 629.0, 630.0, 630.0, 630.0, 630.0, 630.0, 629.0, 629.0, 630.0, 630.0, 629.0, 629.0, 629.0, 630.0, 630.0, 631.0, 631.0, 631.0, 629.0, 630.0, 630.0, 630.0, 630.0, 630.0, 630.0, 630.0, 630.0, 631.0, 632.0, 632.0, 631.0, 630.0, 630.0, 631.0, 631.0, 631.0, 630.0, 630.0, 630.0, 631.0, 631.0, 630.0, 630.0, 630.0, 630.0, 630.0, 629.0, 629.0, 630.0, 630.0, 630.0, 631.0, 631.0, 630.0, 630.0, 629.0, 629.0, 630.0, 631.0, 629.0, 629.0],
