{
  "AcquisitionMatrixPE": 64,
  "AcquisitionNumber": 1,
  "AcquisitionTime": "14:09:43.812500",
  "BandwidthPerPixelPhaseEncode": 31.25,
  "BaseResolution": 64,
  "CoilCombinationMethod": "Sum of Squares",
  "CoilString": "C:HEA;HEP",
  "ConversionSoftware": "dcm2niix",
  "ConversionSoftwareVersion": "v1.0.20211006",
  "DerivedVendorReportedEchoSpacing": 0.0005,
  "DeviceSerialNumber": "35377",
  "DwellTime": 3.4e-06,
  "EchoTime": 0.03,
  "EffectiveEchoSpacing": 0.0005,
  "FlipAngle": 90,
  "ImageOrientationPatientDICOM": [0.999154, -0.0394314, -0.0117143, 0.0401301, 0.996943, 0.0670421],
  "ImageOrientationText": "Tra>Cor(3.9)>Sag(-0.5)",
  "ImageType": [
    "ORIGINAL",
    "PRIMARY",
    "M",
    "ND",
    "MOSAIC"
],
  "ImagingFrequency": 123.256,
  "InPlanePhaseEncodingDirectionDICOM": "COL",
  "InstitutionAddress": "Azinhaga Santa Comba StreetNo,Coimbra,District,PT,3000",
  "InstitutionName": "ICNAS",
  "InstitutionalDepartmentName": "Department",
  "MRAcquisitionType": "2D",
  "MagneticFieldStrength": 3,
  "Manufacturer": "Siemens",
  "ManufacturersModelName": "TrioTim",
  "MatrixCoilMode": "SENSE",
  "Modality": "MR",
  "PartialFourier": 1,
  "PatientPosition": "HFS",
  "PercentPhaseFOV": 100,
  "PercentSampling": 100,
  "PhaseEncodingDirection": "j-",
  "PhaseEncodingSteps": 64,
  "PhaseResolution": 1,
  "PixelBandwidth": 2298,
  "ProcedureStepDescription": "Unknown",
  "ProtocolName": "rtfmri_neurofeedback_AvatarVisual",
  "PulseSequenceDetails": "%SiemensSeq%\\ep2d_bold",
  "ReceiveCoilName": "HeadMatrix",
  "ReconMatrixPE": 64,
  "RepetitionTime": 2,
  "SAR": 0.188101,
  "ScanOptions": "FS",
  "ScanningSequence": "EP",
  "SequenceName": "*epfid2d1_64",
  "SequenceVariant": "SK",
  "SeriesDescription": "rtfmri_neurofeedback_AvatarVisual",
  "SeriesNumber": 6,
  "ShimSetting": [15819, 7516, 21424, 643, 223, -642, -11, 15],
  "SliceThickness": 3,
  "SliceTiming": [0, 1.035, 0.0625, 1.095, 0.1225, 1.1575, 0.1825, 1.2175, 0.245, 1.2775, 0.305, 1.34, 0.365, 1.4, 0.4275, 1.46, 0.4875, 1.5225, 0.5475, 1.5825, 0.61, 1.6425, 0.67, 1.705, 0.73, 1.765, 0.7925, 1.825, 0.8525, 1.8875, 0.9125, 1.9475, 0.975],
  "SoftwareVersions": "syngo MR B17",
  "SpacingBetweenSlices": 3,
  "StationName": "MRC35377",
  "TaskName": "visualfeedback",
  "TotalReadoutTime": 0.0315,
  "TxRefAmp": 366.83,
  "dcmmeta_affine": [
    [-3.996614456176758, 0.16052059829235077, -0.027104828506708145, 121.1741714477539],
    [0.157725527882576, 3.9877712726593018, 0.2023664116859436, -90.88097381591797],
    [-0.04685727879405022, -0.26816844940185547, 2.993044137954712, -37.97526168823242],
    [0.0, 0.0, 0.0, 1.0]
],
  "dcmmeta_reorient_transform": [
    [0.0, -1.0, 0.0, 63.0],
    [1.0, 0.0, 0.0, 0.0],
    [0.0, 0.0, 1.0, 0.0],
    [0.0, 0.0, 0.0, 1.0]
],
  "dcmmeta_shape": [64, 64, 33, 300],
  "dcmmeta_slice_dim": 2,
  "dcmmeta_version": 0.6,
  "global": {
    "const": {
      "AccessionNumber": "JVD20150220-0653",
      "AcquisitionMatrix": [64, 0, 0, 64],
      "Allergies": "MEDALERGIESL",
      "AngioFlag": "N",
      "BitsAllocated": 16,
      "BitsStored": 12,
      "Columns": 384,
      "EchoNumbers": 1,
      "EchoTime": 30.0,
      "EchoTrainLength": 1,
      "FlipAngle": 90.0,
      "HighBit": 11,
      "ImageOrientationPatient": [0.99915361221894, -0.0394313822916, -0.0117143194606, 0.04013015068313, 0.99694278964173, 0.06704211502859],
      "ImagePositionPatient": [-796.42857556252, -773.1559083669, -90.279665086997],
      "ImageType": [
        "ORIGINAL",
        "PRIMARY",
        "M",
        "ND",
        "MOSAIC"
],
      "ImagedNucleus": "1H",
      "ImagingFrequency": 123.255618,
      "InPlanePhaseEncodingDirection": "COL",
      "MRAcquisitionType": "2D",
      "MagneticFieldStrength": 3.0,
      "Manufacturer": "SIEMENS",
      "ManufacturerModelName": "TrioTim",
      "MedicalAlerts": "MEDALERTS",
      "Modality": "MR",
      "NumberOfAverages": 1.0,
      "NumberOfPhaseEncodingSteps": 64,
      "PercentPhaseFieldOfView": 100.0,
      "PercentSampling": 100.0,
      "PerformedProcedureStepStartTime": "133513.390000",
      "PhotometricInterpretation": "MONOCHROME2",
      "PixelBandwidth": 2298.0,
      "PixelRepresentation": 0,
      "PixelSpacing": [4.0, 4.0],
      "ProtocolName": "rtfmri_neurofeedback_AvatarVisual",
      "RepetitionTime": 2000.0,
      "RequestAttributesSequence": [
        {
          "RequestedProcedureID": "48c98c94-0a7f-48",
          "ScheduledProcedureStepDescription": "Unknown",
          "ScheduledProcedureStepID": "48c98c94-0a7f-48"
        }
],
      "Rows": 384,
      "SAR": 0.18810103125297,
      "SamplesPerPixel": 1,
      "ScanOptions": "FS",
      "ScanningSequence": "EP",
      "SequenceName": "*epfid2d1_64",
      "SequenceVariant": "SK",
      "SeriesDescription": "rtfmri_neurofeedback_AvatarVisual",
      "SeriesNumber": 6,
      "SeriesTime": "140947.203000",
      "SliceLocation": -45.112433124984,
      "SliceThickness": 3.0,
      "SmallestImagePixelValue": 0,
      "SoftwareVersions": "syngo MR B17",
      "SpacingBetweenSlices": 3.0000000120293,
      "SpecificCharacterSet": "ISO_IR 100",
      "StudyID": "48c98c94-0a7f-48",
      "StudyTime": "133513.312000",
      "TransmitCoilName": "Body",
      "VariableFlipAngleFlag": "N",
      "WindowCenterWidthExplanation": "Algo1",
      "dBdt": 0.0},
    "slices": {}
  },
  "time": {
    "samples": {
      "AcquisitionNumber": [1, 2, 3, 4, 5, 6, 7, 8, 9, 10, 11, 12, 13, 14, 15, 16, 17, 18, 19, 20, 21, 22, 23, 24, 25, 26, 27, 28, 29, 30, 31, 32, 33, 34, 35, 36, 37, 38, 39, 40, 41, 42, 43, 44, 45, 46, 47, 48, 49, 50, 51, 52, 53, 54, 55, 56, 57, 58, 59, 60, 61, 62, 63, 64, 65, 66, 67, 68, 69, 70, 71, 72, 73, 74, 75, 76, 77, 78, 79, 80, 81, 82, 83, 84, 85, 86, 87, 88, 89, 90, 91, 92, 93, 94, 95, 96, 97, 98, 99, 100, 101, 102, 103, 104, 105, 106, 107, 108, 109, 110, 111, 112, 113, 114, 115, 116, 117, 118, 119, 120, 121, 122, 123, 124, 125, 126, 127, 128, 129, 130, 131, 132, 133, 134, 135, 136, 137, 138, 139, 140, 141, 142, 143, 144, 145, 146, 147, 148, 149, 150, 151, 152, 153, 154, 155, 156, 157, 158, 159, 160, 161, 162, 163, 164, 165, 166, 167, 168, 169, 170, 171, 172, 173, 174, 175, 176, 177, 178, 179, 180, 181, 182, 183, 184, 185, 186, 187, 188, 189, 190, 191, 192, 193, 194, 195, 196, 197, 198, 199, 200, 201, 202, 203, 204, 205, 206, 207, 208, 209, 210, 211, 212, 213, 214, 215, 216, 217, 218, 219, 220, 221, 222, 223, 224, 225, 226, 227, 228, 229, 230, 231, 232, 233, 234, 235, 236, 237, 238, 239, 240, 241, 242, 243, 244, 245, 246, 247, 248, 249, 250, 251, 252, 253, 254, 255, 256, 257, 258, 259, 260, 261, 262, 263, 264, 265, 266, 267, 268, 269, 270, 271, 272, 273, 274, 275, 276, 277, 278, 279, 280, 281, 282, 283, 284, 285, 286, 287, 288, 289, 290, 291, 292, 293, 294, 295, 296, 297, 298, 299, 300],
      "AcquisitionTime": ["140943.812500", "140945.822500", "140947.830000", "140949.837500", "140951.845000", "140953.852500", "140955.862500", "140957.870000", "140959.877500", "141001.885000", "141003.895000", "141005.902500", "141007.910000", "141009.917500", "141011.925000", "141013.935000", "141015.942500", "141017.950000", "141019.957500", "141021.965000", "141023.975000", "141025.982500", "141027.990000", "141029.997500", "141032.007500", "141034.015000", "141036.022500", "141038.030000", "141040.037500", "141042.047500", "141044.055000", "141046.062500", "141048.070000", "141050.077500", "141052.087500", "141054.095000", "141056.102500", "141058.110000", "141100.117500", "141102.127500", "141104.135000", "141106.142500", "141108.150000", "141110.160000", "141112.167500", "141114.175000", "141116.182500", "141118.190000", "141120.200000", "141122.207500", "141124.215000", "141126.222500", "141128.230000", "141130.240000", "141132.247500", "141134.255000", "141136.262500", "141138.272500", "141140.280000", "141142.287500", "141144.295000", "141146.302500", "141148.312500", "141150.320000", "141152.327500", "141154.335000", "141156.342500", "141158.352500", "141200.360000", "141202.367500", "141204.375000", "141206.385000", "141208.392500", "141210.400000", "141212.407500", "141214.415000", "141216.425000", "141218.432500", "141220.440000", "141222.447500", "141224.455000", "141226.465000", "141228.472500", "141230.480000", "141232.487500", "141234.497500", "141236.505000", "141238.512500", "141240.520000", "141242.527500", "141244.537500", "141246.545000", "141248.552500", "141250.560000", "141252.567500", "141254.577500", "141256.585000", "141258.592500", "141300.600000", "141302.607500", "141304.617500", "141306.625000", "141308.632500", "141310.640000", "141312.650000", "141314.657500", "141316.665000", "141318.672500", "141320.680000", "141322.690000", "141324.697500", "141326.705000", "141328.712500", "141330.720000", "141332.730000", "141334.737500", "141336.745000", "141338.752500", "141340.762500", "141342.770000", "141344.777500", "141346.785000", "141348.792500", "141350.802500", "141352.810000", "141354.817500", "141356.825000", "141358.832500", "141400.842500", "141402.850000", "141404.857500", "141406.865000", "141408.875000", "141410.882500", "141412.890000", "141414.897500", "141416.905000", "141418.915000", "141420.922500", "141422.930000", "141424.937500", "141426.945000", "141428.955000", "141430.962500", "141432.970000", "141434.977500", "141436.985000", "141438.995000", "141441.002500", "141443.010000", "141445.017500", "141447.027500", "141449.035000", "141451.042500", "141453.050000", "141455.057500", "141457.067500", "141459.075000", "141501.082500", "141503.090000", "141505.097500", "141507.107500", "141509.115000", "141511.122500", "141513.130000", "141515.140000", "141517.147500", "141519.155000", "141521.162500", "141523.170000", "141525.180000", "141527.187500", "141529.195000", "141531.202500", "141533.210000", "141535.220000", "141537.227500", "141539.235000", "141541.242500", "141543.252500", "141545.260000", "141547.267500", "141549.275000", "141551.282500", "141553.292500", "141555.300000", "141557.307500", "141559.315000", "141601.322500", "141603.332500", "141605.340000", "141607.347500", "141609.355000", "141611.362500", "141613.372500", "141615.380000", "141617.387500", "141619.395000", "141621.405000", "141623.412500", "141625.420000", "141627.427500", "141629.435000", "141631.445000", "141633.452500", "141635.460000", "141637.467500", "141639.475000", "141641.485000", "141643.492500", "141645.500000", "141647.507500", "141649.517500", "141651.525000", "141653.532500", "141655.540000", "141657.547500", "141659.557500", "141701.565000", "141703.572500", "141705.580000", "141707.587500", "141709.597500", "141711.605000", "141713.612500", "141715.620000", "141717.630000", "141719.637500", "141721.645000", "141723.652500", "141725.660000", "141727.670000", "141729.677500", "141731.685000", "141733.692500", "141735.700000", "141737.710000", "141739.717500", "141741.725000", "141743.732500", "141745.740000", "141747.750000", "141749.757500", "141751.765000", "141753.772500", "141755.782500", "141757.790000", "141759.797500", "141801.805000", "141803.812500", "141805.822500", "141807.830000", "141809.837500", "141811.845000", "141813.852500", "141815.862500", "141817.870000", "141819.877500", "141821.885000", "141823.895000", "141825.902500", "141827.910000", "141829.917500", "141831.925000", "141833.935000", "141835.942500", "141837.950000", "141839.957500", "141841.965000", "141843.975000", "141845.982500", "141847.990000", "141849.997500", "141852.007500", "141854.015000", "141856.022500", "141858.030000", "141900.037500", "141902.047500", "141904.055000", "141906.062500", "141908.070000", "141910.077500", "141912.087500", "141914.095000", "141916.102500", "141918.110000", "141920.117500", "141922.127500", "141924.135000", "141926.142500", "141928.150000", "141930.160000", "141932.167500", "141934.175000", "141936.182500", "141938.190000", "141940.200000", "141942.207500", "141944.215000"],
      "ContentTime": ["140947.203000", "140949.187000", "140951.203000", "140953.203000", "140955.203000", "140957.203000", "140959.203000", "141001.203000", "141003.203000", "141005.203000", "141007.203000", "141009.203000", "141011.203000", "141013.203000", "141015.203000", "141017.203000", "141019.203000", "141021.203000", "141023.203000", "141025.203000", "141027.203000", "141029.203000", "141031.203000", "141033.203000", "141035.203000", "141037.203000", "141039.203000", "141041.203000", "141043.203000", "141045.203000", "141047.203000", "141049.203000", "141051.203000", "141053.203000", "141055.203000", "141057.203000", "141059.203000", "141101.203000", "141103.203000", "141105.203000", "141107.203000", "141109.203000", "141111.203000", "141113.203000", "141115.187000", "141117.203000", "141119.187000", "141121.203000", "141123.203000", "141125.203000", "141127.203000", "141129.203000", "141131.203000", "141133.203000", "141135.203000", "141137.203000", "141139.203000", "141141.203000", "141143.203000", "141145.203000", "141147.203000", "141149.203000", "141151.187000", "141153.203000", "141155.203000", "141157.203000", "141159.203000", "141201.203000", "141203.203000", "141205.203000", "141207.203000", "141209.203000", "141211.203000", "141213.187000", "141215.203000", "141217.203000", "141219.203000", "141221.203000", "141223.203000", "141225.203000", "141227.203000", "141229.203000", "141231.203000", "141233.203000", "141235.203000", "141237.187000", "141239.203000", "141241.203000", "141243.203000", "141245.203000", "141247.203000", "141249.203000", "141251.203000", "141253.203000", "141255.203000", "141257.203000", "141259.203000", "141301.203000", "141303.203000", "141305.203000", "141307.203000", "141309.203000", "141311.203000", "141313.203000", "141315.203000", "141317.203000", "141319.203000", "141321.203000", "141323.203000", "141325.203000", "141327.187000", "141329.203000", "141331.203000", "141333.203000", "141335.203000", "141337.203000", "141339.203000", "141341.203000", "141343.187000", "141345.203000", "141347.203000", "141349.203000", "141351.203000", "141353.187000", "141355.203000", "141357.203000", "141359.203000", "141401.187000", "141403.203000", "141405.203000", "141407.203000", "141409.203000", "141411.203000", "141413.203000", "141415.203000", "141417.203000", "141419.203000", "141421.203000", "141423.203000", "141425.203000", "141427.203000", "141429.203000", "141431.203000", "141433.203000", "141435.203000", "141437.203000", "141439.203000", "141441.203000", "141443.203000", "141445.203000", "141447.203000", "141449.203000", "141451.203000", "141453.203000", "141455.203000", "141457.203000", "141459.203000", "141501.203000", "141503.203000", "141505.203000", "141507.203000", "141509.203000", "141511.203000", "141513.203000", "141515.203000", "141517.203000", "141519.203000", "141521.203000", "141523.203000", "141525.203000", "141527.203000", "141529.203000", "141531.203000", "141533.203000", "141535.203000", "141537.203000", "141539.203000", "141541.203000", "141543.203000", "141545.203000", "141547.203000", "141549.203000", "141551.203000", "141553.203000", "141555.203000", "141557.203000", "141559.203000", "141601.203000", "141603.203000", "141605.203000", "141607.203000", "141609.203000", "141611.203000", "141613.203000", "141615.203000", "141617.203000", "141619.203000", "141621.203000", "141623.203000", "141625.203000", "141627.203000", "141629.203000", "141631.203000", "141633.203000", "141635.203000", "141637.203000", "141639.203000", "141641.203000", "141643.203000", "141645.203000", "141647.203000", "141649.203000", "141651.187000", "141653.203000", "141655.203000", "141657.203000", "141659.203000", "141701.203000", "141703.203000", "141705.187000", "141707.203000", "141709.203000", "141711.203000", "141713.203000", "141715.203000", "141717.203000", "141719.203000", "141721.203000", "141723.203000", "141725.203000", "141727.203000", "141729.203000", "141731.203000", "141733.203000", "141735.203000", "141737.203000", "141739.203000", "141741.203000", "141743.203000", "141745.203000", "141747.203000", "141749.203000", "141751.203000", "141753.187000", "141755.203000", "141757.187000", "141759.203000", "141801.203000", "141803.203000", "141805.203000", "141807.203000", "141809.203000", "141811.203000", "141813.203000", "141815.203000", "141817.203000", "141819.203000", "141821.203000", "141823.203000", "141825.203000", "141827.203000", "141829.203000", "141831.203000", "141833.203000", "141835.203000", "141837.203000", "141839.203000", "141841.203000", "141843.203000", "141845.203000", "141847.203000", "141849.203000", "141851.203000", "141853.203000", "141855.203000", "141857.203000", "141859.203000", "141901.203000", "141903.203000", "141905.203000", "141907.203000", "141909.203000", "141911.203000", "141913.203000", "141915.203000", "141917.203000", "141919.203000", "141921.203000", "141923.203000", "141925.203000", "141927.203000", "141929.203000", "141931.203000", "141933.203000", "141935.203000", "141937.203000", "141939.203000", "141941.203000", "141943.203000", "141944.875000"],
      "InstanceCreationTime": ["140947.203000", "140949.187000", "140951.203000", "140953.203000", "140955.203000", "140957.203000", "140959.203000", "141001.203000", "141003.203000", "141005.203000", "141007.203000", "141009.203000", "141011.203000", "141013.203000", "141015.203000", "141017.203000", "141019.203000", "141021.203000", "141023.203000", "141025.203000", "141027.203000", "141029.203000", "141031.203000", "141033.203000", "141035.203000", "141037.203000", "141039.203000", "141041.203000", "141043.203000", "141045.203000", "141047.203000", "141049.203000", "141051.203000", "141053.203000", "141055.203000", "141057.203000", "141059.203000", "141101.203000", "141103.203000", "141105.203000", "141107.203000", "141109.203000", "141111.203000", "141113.203000", "141115.187000", "141117.203000", "141119.187000", "141121.203000", "141123.203000", "141125.203000", "141127.203000", "141129.203000", "141131.203000", "141133.203000", "141135.203000", "141137.203000", "141139.203000", "141141.203000", "141143.203000", "141145.203000", "141147.203000", "141149.203000", "141151.187000", "141153.203000", "141155.203000", "141157.203000", "141159.203000", "141201.203000", "141203.203000", "141205.203000", "141207.203000", "141209.203000", "141211.203000", "141213.187000", "141215.203000", "141217.203000", "141219.203000", "141221.203000", "141223.203000", "141225.203000", "141227.203000", "141229.203000", "141231.203000", "141233.203000", "141235.203000", "141237.187000", "141239.203000", "141241.203000", "141243.203000", "141245.203000", "141247.203000", "141249.203000", "141251.203000", "141253.203000", "141255.203000", "141257.203000", "141259.203000", "141301.203000", "141303.203000", "141305.203000", "141307.203000", "141309.203000", "141311.203000", "141313.203000", "141315.203000", "141317.203000", "141319.203000", "141321.203000", "141323.203000", "141325.203000", "141327.187000", "141329.203000", "141331.203000", "141333.203000", "141335.203000", "141337.203000", "141339.203000", "141341.203000", "141343.187000", "141345.203000", "141347.203000", "141349.203000", "141351.203000", "141353.187000", "141355.203000", "141357.203000", "141359.203000", "141401.187000", "141403.203000", "141405.203000", "141407.203000", "141409.203000", "141411.203000", "141413.203000", "141415.203000", "141417.203000", "141419.203000", "141421.203000", "141423.203000", "141425.203000", "141427.203000", "141429.203000", "141431.203000", "141433.203000", "141435.203000", "141437.203000", "141439.203000", "141441.203000", "141443.203000", "141445.203000", "141447.203000", "141449.203000", "141451.203000", "141453.203000", "141455.203000", "141457.203000", "141459.203000", "141501.203000", "141503.203000", "141505.203000", "141507.203000", "141509.203000", "141511.203000", "141513.203000", "141515.203000", "141517.203000", "141519.203000", "141521.203000", "141523.203000", "141525.203000", "141527.203000", "141529.203000", "141531.203000", "141533.203000", "141535.203000", "141537.203000", "141539.203000", "141541.203000", "141543.203000", "141545.203000", "141547.203000", "141549.203000", "141551.203000", "141553.203000", "141555.203000", "141557.203000", "141559.203000", "141601.203000", "141603.203000", "141605.203000", "141607.203000", "141609.203000", "141611.203000", "141613.203000", "141615.203000", "141617.203000", "141619.203000", "141621.203000", "141623.203000", "141625.203000", "141627.203000", "141629.203000", "141631.203000", "141633.203000", "141635.203000", "141637.203000", "141639.203000", "141641.203000", "141643.203000", "141645.203000", "141647.203000", "141649.203000", "141651.187000", "141653.203000", "141655.203000", "141657.203000", "141659.203000", "141701.203000", "141703.203000", "141705.187000", "141707.203000", "141709.203000", "141711.203000", "141713.203000", "141715.203000", "141717.203000", "141719.203000", "141721.203000", "141723.203000", "141725.203000", "141727.203000", "141729.203000", "141731.203000", "141733.203000", "141735.203000", "141737.203000", "141739.203000", "141741.203000", "141743.203000", "141745.203000", "141747.203000", "141749.203000", "141751.203000", "141753.187000", "141755.203000", "141757.187000", "141759.203000", "141801.203000", "141803.203000", "141805.203000", "141807.203000", "141809.203000", "141811.203000", "141813.203000", "141815.203000", "141817.203000", "141819.203000", "141821.203000", "141823.203000", "141825.203000", "141827.203000", "141829.203000", "141831.203000", "141833.203000", "141835.203000", "141837.203000", "141839.203000", "141841.203000", "141843.203000", "141845.203000", "141847.203000", "141849.203000", "141851.203000", "141853.203000", "141855.203000", "141857.203000", "141859.203000", "141901.203000", "141903.203000", "141905.203000", "141907.203000", "141909.203000", "141911.203000", "141913.203000", "141915.203000", "141917.203000", "141919.203000", "141921.203000", "141923.203000", "141925.203000", "141927.203000", "141929.203000", "141931.203000", "141933.203000", "141935.203000", "141937.203000", "141939.203000", "141941.203000", "141943.203000", "141944.875000"],
      "InstanceNumber": [1, 2, 3, 4, 5, 6, 7, 8, 9, 10, 11, 12, 13, 14, 15, 16, 17, 18, 19, 20, 21, 22, 23, 24, 25, 26, 27, 28, 29, 30, 31, 32, 33, 34, 35, 36, 37, 38, 39, 40, 41, 42, 43, 44, 45, 46, 47, 48, 49, 50, 51, 52, 53, 54, 55, 56, 57, 58, 59, 60, 61, 62, 63, 64, 65, 66, 67, 68, 69, 70, 71, 72, 73, 74, 75, 76, 77, 78, 79, 80, 81, 82, 83, 84, 85, 86, 87, 88, 89, 90, 91, 92, 93, 94, 95, 96, 97, 98, 99, 100, 101, 102, 103, 104, 105, 106, 107, 108, 109, 110, 111, 112, 113, 114, 115, 116, 117, 118, 119, 120, 121, 122, 123, 124, 125, 126, 127, 128, 129, 130, 131, 132, 133, 134, 135, 136, 137, 138, 139, 140, 141, 142, 143, 144, 145, 146, 147, 148, 149, 150, 151, 152, 153, 154, 155, 156, 157, 158, 159, 160, 161, 162, 163, 164, 165, 166, 167, 168, 169, 170, 171, 172, 173, 174, 175, 176, 177, 178, 179, 180, 181, 182, 183, 184, 185, 186, 187, 188, 189, 190, 191, 192, 193, 194, 195, 196, 197, 198, 199, 200, 201, 202, 203, 204, 205, 206, 207, 208, 209, 210, 211, 212, 213, 214, 215, 216, 217, 218, 219, 220, 221, 222, 223, 224, 225, 226, 227, 228, 229, 230, 231, 232, 233, 234, 235, 236, 237, 238, 239, 240, 241, 242, 243, 244, 245, 246, 247, 248, 249, 250, 251, 252, 253, 254, 255, 256, 257, 258, 259, 260, 261, 262, 263, 264, 265, 266, 267, 268, 269, 270, 271, 272, 273, 274, 275, 276, 277, 278, 279, 280, 281, 282, 283, 284, 285, 286, 287, 288, 289, 290, 291, 292, 293, 294, 295, 296, 297, 298, 299, 300],
      "LargestImagePixelValue": [1568, 1558, 1518, 1490, 1514, 1492, 1499, 1512, 1484, 1508, 1509, 1486, 1479, 1511, 1487, 1500, 1522, 1482, 1481, 1498, 1463, 1467, 1482, 1468, 1457, 1505, 1510, 1513, 1527, 1494, 1495, 1496, 1492, 1473, 1497, 1486, 1478, 1489, 1474, 1477, 1489, 1490, 1467, 1487, 1491, 1476, 1479, 1484, 1479, 1498, 1505, 1482, 1502, 1515, 1484, 1534, 1501, 1495, 1485, 1481, 1475, 1495, 1473, 1493, 1509, 1509, 1482, 1494, 1488, 1499, 1480, 1488, 1476, 1477, 1490, 1497, 1480, 1511, 1478, 1497, 1500, 1509, 1499, 1490, 1489, 1504, 1505, 1507, 1503, 1506, 1528, 1506, 1507, 1535, 1514, 1513, 1523, 1500, 1502, 1491, 1491, 1501, 1487, 1493, 1502, 1507, 1500, 1503, 1509, 1492, 1507, 1511, 1513, 1499, 1493, 1502, 1512, 1499, 1488, 1505, 1516, 1491, 1505, 1522, 1503, 1531, 1504, 1519, 1508, 1515, 1509, 1526, 1538, 1530, 1518, 1503, 1498, 1501, 1511, 1520, 1519, 1507, 1495, 1510, 1532, 1492, 1502, 1496, 1506, 1514, 1518, 1552, 1536, 1528, 1527, 1497, 1512, 1502, 1519, 1527, 1536, 1528, 1556, 1503, 1505, 1505, 1547, 1509, 1510, 1501, 1493, 1508, 1501, 1503, 1496, 1492, 1507, 1513, 1502, 1502, 1486, 1488, 1501, 1494, 1495, 1475, 1470, 1487, 1472, 1468, 1465, 1476, 1479, 1472, 1469, 1480, 1484, 1476, 1483, 1474, 1479, 1475, 1481, 1479, 1484, 1489, 1475, 1472, 1478, 1477, 1463, 1456, 1469, 1470, 1460, 1477, 1455, 1465, 1461, 1468, 1464, 1452, 1461, 1461, 1461, 1458, 1474, 1478, 1471, 1455, 1442, 1439, 1458, 1444, 1438, 1452, 1443, 1441, 1453, 1441, 1439, 1513, 1461, 1465, 1455, 1435, 1431, 1445, 1453, 1450, 1439, 1448, 1440, 1440, 1422, 1462, 1460, 1450, 1438, 1444, 1435, 1444, 1454, 1460, 1454, 1450, 1435, 1432, 1440, 1438, 1437, 1449, 1449, 1442, 1440, 1447, 1458, 1445, 1430, 1451, 1453, 1444, 1442, 1452, 1437, 1456, 1443, 1443, 1466, 1440, 1441, 1439, 1464, 1456, 1468, 1455, 1460, 1462, 1431, 1453],
      "WindowCenter": [661.0, 661.0, 661.0, 661.0, 661.0, 660.0, 660.0, 660.0, 659.0, 660.0, 660.0, 660.0, 660.0, 660.0, 660.0, 661.0, 661.0, 660.0, 660.0, 660.0, 659.0, 659.0, 659.0, 659.0, 659.0, 660.0, 660.0, 661.0, 660.0, 660.0, 660.0, 660.0, 660.0, 660.0, 661.0, 660.0, 660.0, 659.0, 660.0, 661.0, 660.0, 660.0, 660.0, 660.0, 660.0, 660.0, 661.0, 660.0, 661.0, 661.0, 661.0, 660.0, 660.0, 660.0, 660.0, 661.0, 661.0, 661.0, 660.0, 660.0, 659.0, 660.0, 660.0, 662.0, 662.0, 662.0, 661.0, 661.0, 660.0, 661.0, 660.0, 660.0, 660.0, 661.0, 661.0, 660.0, 660.0, 660.0, 659.0, 660.0, 660.0, 660.0, 660.0, 659.0, 659.0, 660.0, 661.0, 662.0, 662.0, 661.0, 661.0, 661.0, 660.0, 661.0, 661.0, 661.0, 661.0, 661.0, 661.0, 661.0, 660.0, 659.0, 659.0, 659.0, 660.0, 660.0, 660.0, 660.0, 659.0, 660.0, 661.0, 662.0, 662.0, 661.0, 661.0, 661.0, 661.0, 661.0, 660.0, 660.0, 661.0, 661.0, 661.0, 661.0, 661.0, 661.0, 660.0, 660.0, 660.0, 660.0, 660.0, 661.0, 661.0, 661.0, 662.0, 662.0, 661.0, 661.0, 661.0, 662.0, 662.0, 661.0, 661.0, 662.0, 662.0, 661.0, 661.0, 661.0, 661.0, 661.0, 662.0, 662.0, 661.0, 661.0, 661.0, 660.0, 660.0, 661.0, 662.0, 662.0, 662.0, 662.0, 662.0, 661.0, 661.0, 661.0, 661.0, 662.0, 662.0, 661.0, 661.0, 661.0, 660.0, 660.0, 660.0, 660.0, 661.0, 661.0, 660.0, 660.0, 659.0, 660.0, 661.0, 662.0, 662.0, 662.0, 662.0, 661.0, 661.0, 661.0, 661.0, 660.0, 660.0, 660.0, 660.0, 661.0, 660.0, 660.0, 661.0, 661.0, 661.0, 661.0, 660.0, 661.0, 661.0, 662.0, 662.0, 662.0, 661.0, 661.0, 661.0, 661.0, 661.0, 661.0, 661.0, 661.0, 661.0, 660.0, 661.0, 661.0, 661.0, 661.0, 661.0, 661.0, 661.0, 661.0, 661.0, 661.0, 661.0, 660.0, 661.0, 661.0, 661.0, 661.0, 661.0, 661.0, 661.0, 660.0, 661.0, 661.0, 661.0, 660.0, 662.0, 662.0, 661.0, 660.0, 660.0, 660.0, 660.0, 661.0, 661.0, 660.0, 661.0, 660.0, 661.0, 662.0, 662.0, 662.0, 661.0, 661.0, 661.0, 661.0, 661.0, 661.0, 661.0, 661.0, 661.0, 661.0, 661.0, 661.0, 661.0, 661.0, 661.0, 662.0, 662.0, 662.0, 662.0, 661.0, 661.0, 661.0, 661.0, 662.0, 662.0, 662.0, 662.0, 662.0, 662.0, 662.0, 662.0, 662.0, 662.0, 662.0, 662.0, 661.0, 662.0, 662.0, 662.0, 662.0, 661.0, 662.0],
      "WindowWidth": [1418.0, 1417.0, 1417.0, 1418.0, 1417.0, 1415.0, 1416.0, 1415.0, 1413.0, 1414.0, 1414.0, 1415.0, 1415.0, 1415.0, 1416.0, 1417.0, 1417.0, 1414.0, 1414.0, 1414.0, 1413.0, 1413.0, 1413.0, 1412.0, 1413.0, 1414.0, 1416.0, 1416.0, 1416.0, 1415.0, 1415.0, 1414.0, 1413.0, 1414.0, 1416.0, 1414.0, 1414.0, 1413.0, 1414.0, 1416.0, 1416.0, 1415.0, 1415.0, 1414.0, 1415.0, 1415.0, 1416.0, 1415.0, 1416.0, 1417.0, 1417.0, 1416.0, 1415.0, 1414.0, 1414.0, 1416.0, 1415.0, 1416.0, 1415.0, 1414.0, 1413.0, 1413.0, 1415.0, 1420.0, 1420.0, 1418.0, 1416.0, 1416.0, 1415.0, 1416.0, 1414.0, 1415.0, 1415.0, 1416.0, 1416.0, 1415.0, 1414.0, 1414.0, 1412.0, 1413.0, 1413.0, 1414.0, 1414.0, 1413.0, 1412.0, 1414.0, 1416.0, 1419.0, 1419.0, 1417.0, 1417.0, 1417.0, 1415.0, 1416.0, 1416.0, 1417.0, 1416.0, 1417.0, 1417.0, 1416.0, 1414.0, 1412.0, 1412.0, 1412.0, 1414.0, 1415.0, 1414.0, 1414.0, 1413.0, 1413.0, 1416.0, 1419.0, 1419.0, 1416.0, 1416.0, 1417.0, 1415.0, 1415.0, 1415.0, 1415.0, 1416.0, 1416.0, 1416.0, 1417.0, 1416.0, 1416.0, 1415.0, 1415.0, 1414.0, 1413.0, 1414.0, 1416.0, 1417.0, 1416.0, 1418.0, 1418.0, 1417.0, 1416.0, 1417.0, 1418.0, 1419.0, 1418.0, 1418.0, 1418.0, 1419.0, 1418.0, 1418.0, 1418.0, 1418.0, 1418.0, 1418.0, 1418.0, 1418.0, 1417.0, 1416.0, 1415.0, 1415.0, 1416.0, 1418.0, 1418.0, 1419.0, 1419.0, 1419.0, 1417.0, 1416.0, 1416.0, 1418.0, 1418.0, 1418.0, 1417.0, 1417.0, 1417.0, 1415.0, 1415.0, 1414.0, 1415.0, 1416.0, 1416.0, 1414.0, 1413.0, 1412.0, 1413.0, 1417.0, 1418.0, 1419.0, 1419.0, 1419.0, 1417.0, 1417.0, 1416.0, 1416.0, 1415.0, 1415.0, 1415.0, 1415.0, 1416.0, 1415.0, 1415.0, 1416.0, 1416.0, 1417.0, 1416.0, 1415.0, 1416.0, 1417.0, 1418.0, 1419.0, 1419.0, 1417.0, 1417.0, 1417.0, 1418.0, 1417.0, 1417.0, 1416.0, 1417.0, 1416.0, 1414.0, 1417.0, 1418.0, 1416.0, 1416.0, 1416.0, 1417.0, 1416.0, 1416.0, 1417.0, 1417.0, 1417.0, 1415.0, 1417.0, 1418.0, 1417.0, 1417.0, 1416.0, 1416.0, 1416.0, 1415.0, 1416.0, 1417.0, 1416.0, 1413.0, 1420.0, 1419.0, 1415.0, 1414.0, 1413.0, 1413.0, 1415.0, 1416.0, 1416.0, 1414.0, 1415.0, 1415.0, 1416.0, 1420.0, 1419.0, 1418.0, 1417.0, 1416.0, 1416.0, 1416.0, 1416.0, 1417.0, 1416.0, 1417.0, 1416.0, 1416.0, 1416.0, 1417.0, 1416.0, 1416.0, 1416.0, 1418.0, 1421.0, 1419.0, 1419.0, 1416.0, 1416.0, 1418.0, 1417.0, 1418.0, 1418.0, 1419.0, 1418.0, 1418.0, 1418.0, 1418.0, 1418.0, 1418.0, 1419.0, 1420.0, 1418.0, 1417.0, 1419.0, 1418.0, 1418.0, 1418.0, 1418.0, 1420.0]
