{
  "AcquisitionMatrixPE": 64,
  "AcquisitionNumber": 1,
  "AcquisitionTime": "15:38:42.772500",
  "BandwidthPerPixelPhaseEncode": 31.25,
  "BaseResolution": 64,
  "CoilCombinationMethod": "Sum of Squares",
  "CoilString": "C:HEA;HEP",
  "ConversionSoftware": "dcm2niix",
  "ConversionSoftwareVersion": "v1.0.20211006",
  "DerivedVendorReportedEchoSpacing": 0.0005,
  "DeviceSerialNumber": "35377",
  "DwellTime": 3.4e-06,
  "EchoTime": 0.03,
  "EffectiveEchoSpacing": 0.0005,
  "FlipAngle": 90,
  "ImageOrientationPatientDICOM": [0.999506, 0.0313522, -0.00211526, -0.0314108, 0.998751, -0.0388448],
  "ImageOrientationText": "Tra>Cor(-2.2)>Sag(-0.1)",
  "ImageType": [
    "ORIGINAL",
    "PRIMARY",
    "M",
    "ND",
    "MOSAIC"
],
  "ImagingFrequency": 123.256,
  "InPlanePhaseEncodingDirectionDICOM": "COL",
  "InstitutionAddress": "Azinhaga Santa Comba StreetNo,Coimbra,District,PT,3000",
  "InstitutionName": "IBILI",
  "InstitutionalDepartmentName": "Department",
  "MRAcquisitionType": "2D",
  "MagneticFieldStrength": 3,
  "Manufacturer": "Siemens",
  "ManufacturersModelName": "TrioTim",
  "MatrixCoilMode": "SENSE",
  "Modality": "MR",
  "PartialFourier": 1,
  "PatientPosition": "HFS",
  "PercentPhaseFOV": 100,
  "PercentSampling": 100,
  "PhaseEncodingDirection": "j-",
  "PhaseEncodingSteps": 64,
  "PhaseResolution": 1,
  "PixelBandwidth": 2298,
  "ProcedureStepDescription": "Unknown",
  "ProtocolName": "rtfmri_neurofeedback_AvatarVisual",
  "PulseSequenceDetails": "%SiemensSeq%\\ep2d_bold",
  "ReceiveCoilName": "HeadMatrix",
  "ReconMatrixPE": 64,
  "RepetitionTime": 2,
  "SAR": 0.145204,
  "ScanOptions": "FS",
  "ScanningSequence": "EP",
  "SequenceName": "*epfid2d1_64",
  "SequenceVariant": "SK",
  "SeriesDescription": "rtfmri_neurofeedback_AvatarVisual",
  "SeriesNumber": 9,
  "ShimSetting": [15820, 7574, 21282, 452, 155, -499, 146, -29],
  "SliceThickness": 3,
  "SliceTiming": [0, 1.035, 0.0625, 1.095, 0.1225, 1.1575, 0.1825, 1.2175, 0.245, 1.2775, 0.305, 1.34, 0.365, 1.4, 0.4275, 1.46, 0.4875, 1.5225, 0.5475, 1.5825, 0.61, 1.6425, 0.67, 1.705, 0.73, 1.765, 0.7925, 1.825, 0.8525, 1.8875, 0.9125, 1.9475, 0.975],
  "SoftwareVersions": "syngo MR B17",
  "SpacingBetweenSlices": 3,
  "StationName": "MRC35377",
  "TaskName": "visualfeedback",
  "TotalReadoutTime": 0.0315,
  "TxRefAmp": 387.387,
  "dcmmeta_affine": [
    [-3.9980247020721436, -0.1256430745124817, -0.002684251172468066, 135.4021759033203],
    [-0.12540893256664276, 3.9950058460235596, -0.11667603999376297, -80.29463195800781],
    [-0.00846104510128498, 0.1553790122270584, 2.9977290630340576, -68.90679931640625],
    [0.0, 0.0, 0.0, 1.0]
],
  "dcmmeta_reorient_transform": [
    [0.0, -1.0, 0.0, 63.0],
    [1.0, 0.0, 0.0, 0.0],
    [0.0, 0.0, 1.0, 0.0],
    [0.0, 0.0, 0.0, 1.0]
],
  "dcmmeta_shape": [64, 64, 33, 300],
  "dcmmeta_slice_dim": 2,
  "dcmmeta_version": 0.6,
  "global": {
    "const": {
      "AccessionNumber": "RJS20150417-0556",
      "AcquisitionMatrix": [64, 0, 0, 64],
      "Allergies": "MEDALERGIESL",
      "AngioFlag": "N",
      "BitsAllocated": 16,
      "BitsStored": 12,
      "Columns": 384,
      "EchoNumbers": 1,
      "EchoTime": 30.0,
      "EchoTrainLength": 1,
      "FlipAngle": 90.0,
      "HighBit": 11,
      "ImageOrientationPatient": [0.99950615957797, 0.03135223493527, -0.0021152612742, -0.0314107686543, 0.99875144487711, -0.0388447547092],
      "ImagePositionPatient": [-747.06770648219, -830.65709023775, -32.903509421514],
      "ImageType": [
        "ORIGINAL",
        "PRIMARY",
        "M",
        "ND",
        "MOSAIC"
],
      "ImagedNucleus": "1H",
      "ImagingFrequency": 123.255647,
      "InPlanePhaseEncodingDirection": "COL",
      "MRAcquisitionType": "2D",
      "MagneticFieldStrength": 3.0,
      "Manufacturer": "SIEMENS",
      "ManufacturerModelName": "TrioTim",
      "MedicalAlerts": "MEDALERTS",
      "Modality": "MR",
      "NumberOfAverages": 1.0,
      "NumberOfPhaseEncodingSteps": 64,
      "PercentPhaseFieldOfView": 100.0,
      "PercentSampling": 100.0,
      "PerformedProcedureStepStartTime": "140949.890000",
      "PhotometricInterpretation": "MONOCHROME2",
      "PixelBandwidth": 2298.0,
      "PixelRepresentation": 0,
      "PixelSpacing": [4.0, 4.0],
      "ProtocolName": "rtfmri_neurofeedback_AvatarVisual",
      "RepetitionTime": 2000.0,
      "RequestAttributesSequence": [
        {
          "RequestedProcedureID": "bdce7d2d-2ec7-4d",
          "ScheduledProcedureStepDescription": "Unknown",
          "ScheduledProcedureStepID": "bdce7d2d-2ec7-4d"
        }
],
      "Rows": 384,
      "SAR": 0.1452037986012,
      "SamplesPerPixel": 1,
      "ScanOptions": "FS",
      "ScanningSequence": "EP",
      "SequenceName": "*epfid2d1_64",
      "SequenceVariant": "SK",
      "SeriesDescription": "rtfmri_neurofeedback_AvatarVisual",
      "SeriesNumber": 9,
      "SeriesTime": "153847.187000",
      "SliceLocation": -65.852968033003,
      "SliceThickness": 3.0,
      "SmallestImagePixelValue": 0,
      "SoftwareVersions": "syngo MR B17",
      "SpacingBetweenSlices": 3.0000000038701,
      "SpecificCharacterSet": "ISO_IR 100",
      "StudyID": "bdce7d2d-2ec7-4d",
      "StudyTime": "140949.828000",
      "TransmitCoilName": "Body",
      "VariableFlipAngleFlag": "N",
      "WindowCenterWidthExplanation": "Algo1",
      "dBdt": 0.0},
    "slices": {}
  },
  "time": {
    "samples": {
      "AcquisitionNumber": [1, 2, 3, 4, 5, 6, 7, 8, 9, 10, 11, 12, 13, 14, 15, 16, 17, 18, 19, 20, 21, 22, 23, 24, 25, 26, 27, 28, 29, 30, 31, 32, 33, 34, 35, 36, 37, 38, 39, 40, 41, 42, 43, 44, 45, 46, 47, 48, 49, 50, 51, 52, 53, 54, 55, 56, 57, 58, 59, 60, 61, 62, 63, 64, 65, 66, 67, 68, 69, 70, 71, 72, 73, 74, 75, 76, 77, 78, 79, 80, 81, 82, 83, 84, 85, 86, 87, 88, 89, 90, 91, 92, 93, 94, 95, 96, 97, 98, 99, 100, 101, 102, 103, 104, 105, 106, 107, 108, 109, 110, 111, 112, 113, 114, 115, 116, 117, 118, 119, 120, 121, 122, 123, 124, 125, 126, 127, 128, 129, 130, 131, 132, 133, 134, 135, 136, 137, 138, 139, 140, 141, 142, 143, 144, 145, 146, 147, 148, 149, 150, 151, 152, 153, 154, 155, 156, 157, 158, 159, 160, 161, 162, 163, 164, 165, 166, 167, 168, 169, 170, 171, 172, 173, 174, 175, 176, 177, 178, 179, 180, 181, 182, 183, 184, 185, 186, 187, 188, 189, 190, 191, 192, 193, 194, 195, 196, 197, 198, 199, 200, 201, 202, 203, 204, 205, 206, 207, 208, 209, 210, 211, 212, 213, 214, 215, 216, 217, 218, 219, 220, 221, 222, 223, 224, 225, 226, 227, 228, 229, 230, 231, 232, 233, 234, 235, 236, 237, 238, 239, 240, 241, 242, 243, 244, 245, 246, 247, 248, 249, 250, 251, 252, 253, 254, 255, 256, 257, 258, 259, 260, 261, 262, 263, 264, 265, 266, 267, 268, 269, 270, 271, 272, 273, 274, 275, 276, 277, 278, 279, 280, 281, 282, 283, 284, 285, 286, 287, 288, 289, 290, 291, 292, 293, 294, 295, 296, 297, 298, 299, 300],
      "AcquisitionTime": ["153842.772500", "153844.780000", "153846.790000", "153848.797500", "153850.805000", "153852.812500", "153854.822500", "153856.830000", "153858.837500", "153900.845000", "153902.852500", "153904.862500", "153906.870000", "153908.877500", "153910.885000", "153912.892500", "153914.902500", "153916.910000", "153918.917500", "153920.925000", "153922.935000", "153924.942500", "153926.950000", "153928.957500", "153930.965000", "153932.975000", "153934.982500", "153936.990000", "153938.997500", "153941.005000", "153943.015000", "153945.022500", "153947.030000", "153949.037500", "153951.045000", "153953.055000", "153955.062500", "153957.070000", "153959.077500", "154001.087500", "154003.095000", "154005.102500", "154007.110000", "154009.117500", "154011.127500", "154013.135000", "154015.142500", "154017.150000", "154019.157500", "154021.167500", "154023.175000", "154025.182500", "154027.190000", "154029.200000", "154031.207500", "154033.215000", "154035.222500", "154037.230000", "154039.240000", "154041.247500", "154043.255000", "154045.262500", "154047.270000", "154049.280000", "154051.287500", "154053.295000", "154055.302500", "154057.312500", "154059.320000", "154101.327500", "154103.335000", "154105.342500", "154107.352500", "154109.360000", "154111.367500", "154113.375000", "154115.382500", "154117.392500", "154119.400000", "154121.407500", "154123.415000", "154125.422500", "154127.432500", "154129.440000", "154131.447500", "154133.455000", "154135.465000", "154137.472500", "154139.480000", "154141.487500", "154143.495000", "154145.505000", "154147.512500", "154149.520000", "154151.527500", "154153.535000", "154155.545000", "154157.552500", "154159.560000", "154201.567500", "154203.577500", "154205.585000", "154207.592500", "154209.600000", "154211.607500", "154213.617500", "154215.625000", "154217.632500", "154219.640000", "154221.647500", "154223.657500", "154225.665000", "154227.672500", "154229.680000", "154231.690000", "154233.697500", "154235.705000", "154237.712500", "154239.720000", "154241.730000", "154243.737500", "154245.745000", "154247.752500", "154249.760000", "154251.770000", "154253.777500", "154255.785000", "154257.792500", "154259.800000", "154301.810000", "154303.817500", "154305.825000", "154307.832500", "154309.842500", "154311.850000", "154313.857500", "154315.865000", "154317.872500", "154319.882500", "154321.890000", "154323.897500", "154325.905000", "154327.912500", "154329.922500", "154331.930000", "154333.937500", "154335.945000", "154337.955000", "154339.962500", "154341.970000", "154343.977500", "154345.985000", "154347.995000", "154350.002500", "154352.010000", "154354.017500", "154356.025000", "154358.035000", "154400.042500", "154402.050000", "154404.057500", "154406.067500", "154408.075000", "154410.082500", "154412.090000", "154414.097500", "154416.107500", "154418.115000", "154420.122500", "154422.130000", "154424.137500", "154426.147500", "154428.155000", "154430.162500", "154432.170000", "154434.177500", "154436.187500", "154438.195000", "154440.202500", "154442.210000", "154444.220000", "154446.227500", "154448.235000", "154450.242500", "154452.250000", "154454.260000", "154456.267500", "154458.275000", "154500.282500", "154502.290000", "154504.300000", "154506.307500", "154508.315000", "154510.322500", "154512.332500", "154514.340000", "154516.347500", "154518.355000", "154520.362500", "154522.372500", "154524.380000", "154526.387500", "154528.395000", "154530.402500", "154532.412500", "154534.420000", "154536.427500", "154538.435000", "154540.445000", "154542.452500", "154544.460000", "154546.467500", "154548.475000", "154550.485000", "154552.492500", "154554.500000", "154556.507500", "154558.515000", "154600.525000", "154602.532500", "154604.540000", "154606.547500", "154608.557500", "154610.565000", "154612.572500", "154614.580000", "154616.587500", "154618.597500", "154620.605000", "154622.612500", "154624.620000", "154626.627500", "154628.637500", "154630.645000", "154632.652500", "154634.660000", "154636.667500", "154638.677500", "154640.685000", "154642.692500", "154644.700000", "154646.710000", "154648.717500", "154650.725000", "154652.732500", "154654.740000", "154656.750000", "154658.757500", "154700.765000", "154702.772500", "154704.780000", "154706.790000", "154708.797500", "154710.805000", "154712.812500", "154714.822500", "154716.830000", "154718.837500", "154720.845000", "154722.852500", "154724.862500", "154726.870000", "154728.877500", "154730.885000", "154732.892500", "154734.902500", "154736.910000", "154738.917500", "154740.925000", "154742.935000", "154744.942500", "154746.950000", "154748.957500", "154750.965000", "154752.975000", "154754.982500", "154756.990000", "154758.997500", "154801.005000", "154803.015000", "154805.022500", "154807.030000", "154809.037500", "154811.045000", "154813.055000", "154815.062500", "154817.070000", "154819.077500", "154821.087500", "154823.095000", "154825.102500", "154827.110000", "154829.117500", "154831.127500", "154833.135000", "154835.142500", "154837.150000", "154839.157500", "154841.167500", "154843.175000"],
      "ContentTime": ["153847.187000", "153849.187000", "153851.187000", "153853.187000", "153855.187000", "153857.187000", "153859.187000", "153901.187000", "153903.187000", "153905.187000", "153907.187000", "153909.187000", "153911.187000", "153913.187000", "153915.187000", "153917.187000", "153919.187000", "153921.187000", "153923.187000", "153925.187000", "153927.187000", "153929.187000", "153931.187000", "153933.187000", "153935.187000", "153937.187000", "153939.187000", "153941.187000", "153943.187000", "153945.187000", "153947.187000", "153949.187000", "153951.187000", "153953.187000", "153955.187000", "153957.187000", "153959.187000", "154001.187000", "154003.187000", "154005.187000", "154007.187000", "154009.187000", "154011.187000", "154013.187000", "154015.187000", "154017.187000", "154019.187000", "154021.187000", "154023.187000", "154025.187000", "154027.187000", "154029.187000", "154031.187000", "154033.187000", "154035.187000", "154037.187000", "154039.187000", "154041.187000", "154043.187000", "154045.187000", "154047.187000", "154049.187000", "154051.187000", "154053.187000", "154055.203000", "154057.187000", "154059.187000", "154101.187000", "154103.187000", "154105.187000", "154107.187000", "154109.187000", "154111.187000", "154113.187000", "154115.187000", "154117.187000", "154119.187000", "154121.187000", "154123.187000", "154125.187000", "154127.187000", "154129.187000", "154131.187000", "154133.187000", "154135.187000", "154137.187000", "154139.187000", "154141.187000", "154143.187000", "154145.187000", "154147.187000", "154149.187000", "154151.187000", "154153.187000", "154155.187000", "154157.187000", "154159.187000", "154201.187000", "154203.187000", "154205.187000", "154207.187000", "154209.187000", "154211.187000", "154213.187000", "154215.187000", "154217.187000", "154219.187000", "154221.187000", "154223.187000", "154225.187000", "154227.187000", "154229.187000", "154231.187000", "154233.187000", "154235.187000", "154237.187000", "154239.187000", "154241.187000", "154243.187000", "154245.187000", "154247.187000", "154249.187000", "154251.187000", "154253.187000", "154255.187000", "154257.187000", "154259.187000", "154301.187000", "154303.187000", "154305.187000", "154307.187000", "154309.187000", "154311.187000", "154313.187000", "154315.187000", "154317.187000", "154319.187000", "154321.187000", "154323.187000", "154325.187000", "154327.187000", "154329.187000", "154331.187000", "154333.187000", "154335.187000", "154337.187000", "154339.187000", "154341.187000", "154343.187000", "154345.187000", "154347.187000", "154349.187000", "154351.187000", "154353.187000", "154355.187000", "154357.187000", "154359.187000", "154401.187000", "154403.187000", "154405.187000", "154407.187000", "154409.187000", "154411.187000", "154413.187000", "154415.187000", "154417.187000", "154419.187000", "154421.187000", "154423.187000", "154425.187000", "154427.187000", "154429.187000", "154431.187000", "154433.187000", "154435.187000", "154437.187000", "154439.187000", "154441.187000", "154443.187000", "154445.187000", "154447.187000", "154449.187000", "154451.187000", "154453.187000", "154455.187000", "154457.187000", "154459.187000", "154501.187000", "154503.187000", "154505.187000", "154507.187000", "154509.187000", "154511.187000", "154513.187000", "154515.187000", "154517.187000", "154519.187000", "154521.187000", "154523.187000", "154525.187000", "154527.187000", "154529.187000", "154531.187000", "154533.187000", "154535.187000", "154537.187000", "154539.187000", "154541.187000", "154543.187000", "154545.187000", "154547.187000", "154549.187000", "154551.187000", "154553.187000", "154555.187000", "154557.187000", "154559.187000", "154601.187000", "154603.187000", "154605.187000", "154607.187000", "154609.187000", "154611.187000", "154613.187000", "154615.187000", "154617.187000", "154619.187000", "154621.187000", "154623.187000", "154625.187000", "154627.187000", "154629.187000", "154631.187000", "154633.187000", "154635.187000", "154637.187000", "154639.187000", "154641.187000", "154643.187000", "154645.187000", "154647.187000", "154649.187000", "154651.187000", "154653.187000", "154655.187000", "154657.187000", "154659.187000", "154701.187000", "154703.187000", "154705.187000", "154707.187000", "154709.187000", "154711.187000", "154713.187000", "154715.187000", "154717.187000", "154719.187000", "154721.187000", "154723.187000", "154725.187000", "154727.187000", "154729.187000", "154731.187000", "154733.187000", "154735.187000", "154737.187000", "154739.187000", "154741.187000", "154743.187000", "154745.187000", "154747.187000", "154749.187000", "154751.187000", "154753.187000", "154755.187000", "154757.187000", "154759.187000", "154801.187000", "154803.187000", "154805.187000", "154807.187000", "154809.187000", "154811.187000", "154813.187000", "154815.187000", "154817.187000", "154819.187000", "154821.187000", "154823.187000", "154825.187000", "154827.187000", "154829.187000", "154831.187000", "154833.187000", "154835.187000", "154837.187000", "154839.187000", "154841.187000", "154843.187000", "154844.828000"],
      "InstanceCreationTime": ["153847.187000", "153849.187000", "153851.187000", "153853.187000", "153855.187000", "153857.187000", "153859.187000", "153901.187000", "153903.187000", "153905.187000", "153907.187000", "153909.187000", "153911.187000", "153913.187000", "153915.187000", "153917.187000", "153919.187000", "153921.187000", "153923.187000", "153925.187000", "153927.187000", "153929.187000", "153931.187000", "153933.187000", "153935.187000", "153937.187000", "153939.187000", "153941.187000", "153943.187000", "153945.187000", "153947.187000", "153949.187000", "153951.187000", "153953.187000", "153955.187000", "153957.187000", "153959.187000", "154001.187000", "154003.187000", "154005.187000", "154007.187000", "154009.187000", "154011.187000", "154013.187000", "154015.187000", "154017.187000", "154019.187000", "154021.187000", "154023.187000", "154025.187000", "154027.187000", "154029.187000", "154031.187000", "154033.187000", "154035.187000", "154037.187000", "154039.187000", "154041.187000", "154043.187000", "154045.187000", "154047.187000", "154049.187000", "154051.187000", "154053.187000", "154055.203000", "154057.187000", "154059.187000", "154101.187000", "154103.187000", "154105.187000", "154107.187000", "154109.187000", "154111.187000", "154113.187000", "154115.187000", "154117.187000", "154119.187000", "154121.187000", "154123.187000", "154125.187000", "154127.187000", "154129.187000", "154131.187000", "154133.187000", "154135.187000", "154137.187000", "154139.187000", "154141.187000", "154143.187000", "154145.187000", "154147.187000", "154149.187000", "154151.187000", "154153.187000", "154155.187000", "154157.187000", "154159.187000", "154201.187000", "154203.187000", "154205.187000", "154207.187000", "154209.187000", "154211.187000", "154213.187000", "154215.187000", "154217.187000", "154219.187000", "154221.187000", "154223.187000", "154225.187000", "154227.187000", "154229.187000", "154231.187000", "154233.187000", "154235.187000", "154237.187000", "154239.187000", "154241.187000", "154243.187000", "154245.187000", "154247.187000", "154249.187000", "154251.187000", "154253.187000", "154255.187000", "154257.187000", "154259.187000", "154301.187000", "154303.187000", "154305.187000", "154307.187000", "154309.187000", "154311.187000", "154313.187000", "154315.187000", "154317.187000", "154319.187000", "154321.187000", "154323.187000", "154325.187000", "154327.187000", "154329.187000", "154331.187000", "154333.187000", "154335.187000", "154337.187000", "154339.187000", "154341.187000", "154343.187000", "154345.187000", "154347.187000", "154349.187000", "154351.187000", "154353.187000", "154355.187000", "154357.187000", "154359.187000", "154401.187000", "154403.187000", "154405.187000", "154407.187000", "154409.187000", "154411.187000", "154413.187000", "154415.187000", "154417.187000", "154419.187000", "154421.187000", "154423.187000", "154425.187000", "154427.187000", "154429.187000", "154431.187000", "154433.187000", "154435.187000", "154437.187000", "154439.187000", "154441.187000", "154443.187000", "154445.187000", "154447.187000", "154449.187000", "154451.187000", "154453.187000", "154455.187000", "154457.187000", "154459.187000", "154501.187000", "154503.187000", "154505.187000", "154507.187000", "154509.187000", "154511.187000", "154513.187000", "154515.187000", "154517.187000", "154519.187000", "154521.187000", "154523.187000", "154525.187000", "154527.187000", "154529.187000", "154531.187000", "154533.187000", "154535.187000", "154537.187000", "154539.187000", "154541.187000", "154543.187000", "154545.187000", "154547.187000", "154549.187000", "154551.187000", "154553.187000", "154555.187000", "154557.187000", "154559.187000", "154601.187000", "154603.187000", "154605.187000", "154607.187000", "154609.187000", "154611.187000", "154613.187000", "154615.187000", "154617.187000", "154619.187000", "154621.187000", "154623.187000", "154625.187000", "154627.187000", "154629.187000", "154631.187000", "154633.187000", "154635.187000", "154637.187000", "154639.187000", "154641.187000", "154643.187000", "154645.187000", "154647.187000", "154649.187000", "154651.187000", "154653.187000", "154655.187000", "154657.187000", "154659.187000", "154701.187000", "154703.187000", "154705.187000", "154707.187000", "154709.187000", "154711.187000", "154713.187000", "154715.187000", "154717.187000", "154719.187000", "154721.187000", "154723.187000", "154725.187000", "154727.187000", "154729.187000", "154731.187000", "154733.187000", "154735.187000", "154737.187000", "154739.187000", "154741.187000", "154743.187000", "154745.187000", "154747.187000", "154749.187000", "154751.187000", "154753.187000", "154755.187000", "154757.187000", "154759.187000", "154801.187000", "154803.187000", "154805.187000", "154807.187000", "154809.187000", "154811.187000", "154813.187000", "154815.187000", "154817.187000", "154819.187000", "154821.187000", "154823.187000", "154825.187000", "154827.187000", "154829.187000", "154831.187000", "154833.187000", "154835.187000", "154837.187000", "154839.187000", "154841.187000", "154843.187000", "154844.828000"],
      "InstanceNumber": [1, 2, 3, 4, 5, 6, 7, 8, 9, 10, 11, 12, 13, 14, 15, 16, 17, 18, 19, 20, 21, 22, 23, 24, 25, 26, 27, 28, 29, 30, 31, 32, 33, 34, 35, 36, 37, 38, 39, 40, 41, 42, 43, 44, 45, 46, 47, 48, 49, 50, 51, 52, 53, 54, 55, 56, 57, 58, 59, 60, 61, 62, 63, 64, 65, 66, 67, 68, 69, 70, 71, 72, 73, 74, 75, 76, 77, 78, 79, 80, 81, 82, 83, 84, 85, 86, 87, 88, 89, 90, 91, 92, 93, 94, 95, 96, 97, 98, 99, 100, 101, 102, 103, 104, 105, 106, 107, 108, 109, 110, 111, 112, 113, 114, 115, 116, 117, 118, 119, 120, 121, 122, 123, 124, 125, 126, 127, 128, 129, 130, 131, 132, 133, 134, 135, 136, 137, 138, 139, 140, 141, 142, 143, 144, 145, 146, 147, 148, 149, 150, 151, 152, 153, 154, 155, 156, 157, 158, 159, 160, 161, 162, 163, 164, 165, 166, 167, 168, 169, 170, 171, 172, 173, 174, 175, 176, 177, 178, 179, 180, 181, 182, 183, 184, 185, 186, 187, 188, 189, 190, 191, 192, 193, 194, 195, 196, 197, 198, 199, 200, 201, 202, 203, 204, 205, 206, 207, 208, 209, 210, 211, 212, 213, 214, 215, 216, 217, 218, 219, 220, 221, 222, 223, 224, 225, 226, 227, 228, 229, 230, 231, 232, 233, 234, 235, 236, 237, 238, 239, 240, 241, 242, 243, 244, 245, 246, 247, 248, 249, 250, 251, 252, 253, 254, 255, 256, 257, 258, 259, 260, 261, 262, 263, 264, 265, 266, 267, 268, 269, 270, 271, 272, 273, 274, 275, 276, 277, 278, 279, 280, 281, 282, 283, 284, 285, 286, 287, 288, 289, 290, 291, 292, 293, 294, 295, 296, 297, 298, 299, 300],
      "LargestImagePixelValue": [1577, 1527, 1523, 1507, 1513, 1521, 1513, 1505, 1515, 1522, 1523, 1526, 1511, 1509, 1534, 1528, 1535, 1531, 1531, 1528, 1521, 1526, 1529, 1516, 1532, 1528, 1533, 1533, 1535, 1531, 1537, 1528, 1532, 1514, 1542, 1527, 1533, 1526, 1519, 1520, 1529, 1528, 1518, 1517, 1527, 1525, 1522, 1534, 1534, 1535, 1532, 1517, 1542, 1533, 1533, 1533, 1528, 1527, 1545, 1536, 1539, 1531, 1532, 1531, 1539, 1536, 1532, 1532, 1544, 1554, 1526, 1536, 1530, 1519, 1531, 1539, 1538, 1533, 1534, 1534, 1536, 1532, 1534, 1541, 1542, 1546, 1536, 1526, 1541, 1543, 1533, 1547, 1537, 1537, 1547, 1528, 1532, 1533, 1531, 1539, 1554, 1528, 1534, 1542, 1531, 1530, 1517, 1522, 1530, 1537, 1536, 1526, 1530, 1536, 1534, 1536, 1555, 1535, 1525, 1528, 1540, 1534, 1533, 1534, 1525, 1531, 1531, 1534, 1546, 1542, 1533, 1517, 1531, 1539, 1534, 1535, 1522, 1534, 1533, 1541, 1530, 1537, 1530, 1531, 1540, 1537, 1530, 1543, 1542, 1544, 1532, 1540, 1545, 1555, 1538, 1545, 1546, 1541, 1542, 1541, 1539, 1527, 1548, 1556, 1540, 1538, 1537, 1540, 1549, 1538, 1544, 1535, 1539, 1533, 1534, 1536, 1540, 1549, 1535, 1536, 1543, 1538, 1541, 1546, 1548, 1542, 1546, 1551, 1533, 1550, 1547, 1538, 1547, 1551, 1549, 1547, 1552, 1548, 1545, 1548, 1540, 1560, 1537, 1559, 1550, 1554, 1549, 1548, 1541, 1556, 1557, 1560, 1547, 1550, 1548, 1541, 1547, 1549, 1540, 1542, 1553, 1549, 1542, 1540, 1540, 1539, 1540, 1542, 1548, 1544, 1539, 1558, 1553, 1535, 1546, 1539, 1526, 1540, 1545, 1547, 1533, 1554, 1549, 1538, 1538, 1538, 1550, 1548, 1550, 1544, 1547, 1538, 1528, 1548, 1527, 1529, 1539, 1532, 1536, 1534, 1535, 1541, 1539, 1534, 1555, 1536, 1543, 1543, 1536, 1529, 1523, 1545, 1556, 1529, 1528, 1535, 1541, 1518, 1519, 1537, 1542, 1548, 1533, 1546, 1525, 1537, 1536, 1549, 1549, 1542, 1543, 1528, 1537, 1542, 1531, 1527, 1533, 1539, 1530, 1532],
      "WindowCenter": [646.0, 644.0, 645.0, 644.0, 644.0, 644.0, 644.0, 643.0, 643.0, 643.0, 643.0, 643.0, 643.0, 643.0, 644.0, 644.0, 644.0, 645.0, 644.0, 644.0, 643.0, 644.0, 644.0, 645.0, 645.0, 644.0, 644.0, 644.0, 644.0, 644.0, 644.0, 644.0, 644.0, 644.0, 644.0, 644.0, 644.0, 643.0, 645.0, 645.0, 645.0, 645.0, 645.0, 645.0, 645.0, 645.0, 645.0, 645.0, 645.0, 645.0, 645.0, 645.0, 645.0, 644.0, 644.0, 645.0, 645.0, 645.0, 645.0, 645.0, 646.0, 646.0, 646.0, 647.0, 646.0, 646.0, 645.0, 646.0, 645.0, 646.0, 645.0, 645.0, 645.0, 645.0, 645.0, 645.0, 646.0, 646.0, 645.0, 646.0, 646.0, 646.0, 645.0, 645.0, 646.0, 646.0, 647.0, 646.0, 646.0, 646.0, 645.0, 646.0, 645.0, 646.0, 646.0, 646.0, 645.0, 645.0, 646.0, 646.0, 646.0, 645.0, 645.0, 645.0, 646.0, 646.0, 646.0, 646.0, 645.0, 646.0, 647.0, 648.0, 647.0, 646.0, 646.0, 646.0, 647.0, 646.0, 646.0, 646.0, 645.0, 646.0, 646.0, 646.0, 645.0, 646.0, 646.0, 645.0, 647.0, 646.0, 646.0, 645.0, 645.0, 646.0, 648.0, 648.0, 647.0, 646.0, 646.0, 646.0, 646.0, 645.0, 645.0, 646.0, 646.0, 646.0, 646.0, 647.0, 647.0, 646.0, 646.0, 646.0, 646.0, 646.0, 647.0, 647.0, 646.0, 646.0, 647.0, 648.0, 647.0, 646.0, 646.0, 646.0, 645.0, 646.0, 646.0, 646.0, 646.0, 646.0, 647.0, 646.0, 646.0, 646.0, 646.0, 646.0, 647.0, 646.0, 647.0, 646.0, 646.0, 647.0, 648.0, 648.0, 647.0, 646.0, 646.0, 647.0, 646.0, 646.0, 647.0, 647.0, 648.0, 647.0, 647.0, 647.0, 647.0, 648.0, 647.0, 646.0, 646.0, 646.0, 646.0, 647.0, 647.0, 646.0, 647.0, 648.0, 647.0, 647.0, 646.0, 647.0, 646.0, 646.0, 646.0, 646.0, 646.0, 646.0, 647.0, 646.0, 646.0, 646.0, 646.0, 647.0, 646.0, 646.0, 646.0, 647.0, 647.0, 646.0, 647.0, 648.0, 648.0, 647.0, 646.0, 647.0, 646.0, 646.0, 646.0, 646.0, 646.0, 646.0, 647.0, 647.0, 647.0, 647.0, 648.0, 647.0, 647.0, 647.0, 646.0, 647.0, 647.0, 647.0, 648.0, 648.0, 647.0, 647.0, 647.0, 648.0, 648.0, 648.0, 647.0, 647.0, 647.0, 647.0, 647.0, 647.0, 647.0, 647.0, 647.0, 647.0, 646.0, 646.0, 646.0, 647.0, 646.0, 646.0, 647.0, 648.0, 647.0, 646.0, 647.0, 647.0, 647.0, 647.0, 647.0, 647.0, 647.0, 647.0, 648.0, 647.0, 647.0, 647.0, 647.0, 647.0, 647.0, 646.0, 647.0, 647.0],
