{
  "AcquisitionMatrixPE": 64,
  "AcquisitionNumber": 1,
  "AcquisitionTime": "15:27:18.755000",
  "BandwidthPerPixelPhaseEncode": 31.25,
  "BaseResolution": 64,
  "CoilCombinationMethod": "Sum of Squares",
  "CoilString": "C:HEA;HEP",
  "ConversionSoftware": "dcm2niix",
  "ConversionSoftwareVersion": "v1.0.20211006",
  "DerivedVendorReportedEchoSpacing": 0.0005,
  "DeviceSerialNumber": "35377",
  "DwellTime": 3.4e-06,
  "EchoTime": 0.03,
  "EffectiveEchoSpacing": 0.0005,
  "FlipAngle": 90,
  "ImageOrientationPatientDICOM": [0.999506, 0.0313522, -0.00211526, -0.0314108, 0.998751, -0.0388448],
  "ImageOrientationText": "Tra>Cor(-2.2)>Sag(-0.1)",
  "ImageType": [
    "ORIGINAL",
    "PRIMARY",
    "M",
    "ND",
    "MOSAIC"
],
  "ImagingFrequency": 123.256,
  "InPlanePhaseEncodingDirectionDICOM": "COL",
  "InstitutionAddress": "Azinhaga Santa Comba StreetNo,Coimbra,District,PT,3000",
  "InstitutionName": "IBILI",
  "InstitutionalDepartmentName": "Department",
  "MRAcquisitionType": "2D",
  "MagneticFieldStrength": 3,
  "Manufacturer": "Siemens",
  "ManufacturersModelName": "TrioTim",
  "MatrixCoilMode": "SENSE",
  "Modality": "MR",
  "PartialFourier": 1,
  "PatientPosition": "HFS",
  "PercentPhaseFOV": 100,
  "PercentSampling": 100,
  "PhaseEncodingDirection": "j-",
  "PhaseEncodingSteps": 64,
  "PhaseResolution": 1,
  "PixelBandwidth": 2298,
  "ProcedureStepDescription": "Unknown",
  "ProtocolName": "rtfmri_neurofeedback_AvatarAuditivo",
  "PulseSequenceDetails": "%SiemensSeq%\\ep2d_bold",
  "ReceiveCoilName": "HeadMatrix",
  "ReconMatrixPE": 64,
  "RepetitionTime": 2,
  "SAR": 0.145204,
  "ScanOptions": "FS",
  "ScanningSequence": "EP",
  "SequenceName": "*epfid2d1_64",
  "SequenceVariant": "SK",
  "SeriesDescription": "rtfmri_neurofeedback_AvatarAuditivo",
  "SeriesNumber": 8,
  "ShimSetting": [15820, 7574, 21282, 452, 155, -499, 146, -29],
  "SliceThickness": 3,
  "SliceTiming": [0, 1.035, 0.06, 1.095, 0.1225, 1.155, 0.1825, 1.2175, 0.2425, 1.2775, 0.305, 1.3375, 0.365, 1.4, 0.425, 1.46, 0.4875, 1.52, 0.5475, 1.5825, 0.6075, 1.6425, 0.67, 1.7025, 0.73, 1.765, 0.79, 1.825, 0.8525, 1.885, 0.9125, 1.9475, 0.9725],
  "SoftwareVersions": "syngo MR B17",
  "SpacingBetweenSlices": 3,
  "StationName": "MRC35377",
  "TaskName": "auditoryfeedback",
  "TotalReadoutTime": 0.0315,
  "TxRefAmp": 387.387,
  "dcmmeta_affine": [
    [-3.9980247020721436, -0.1256430745124817, -0.002684251172468066, 135.4021759033203],
    [-0.12540893256664276, 3.9950058460235596, -0.11667603999376297, -80.29463195800781],
    [-0.00846104510128498, 0.1553790122270584, 2.9977290630340576, -68.90679931640625],
    [0.0, 0.0, 0.0, 1.0]
],
  "dcmmeta_reorient_transform": [
    [0.0, -1.0, 0.0, 63.0],
    [1.0, 0.0, 0.0, 0.0],
    [0.0, 0.0, 1.0, 0.0],
    [0.0, 0.0, 0.0, 1.0]
],
  "dcmmeta_shape": [64, 64, 33, 300],
  "dcmmeta_slice_dim": 2,
  "dcmmeta_version": 0.6,
  "global": {
    "const": {
      "AccessionNumber": "RJS20150417-0556",
      "AcquisitionMatrix": [64, 0, 0, 64],
      "Allergies": "MEDALERGIESL",
      "AngioFlag": "N",
      "BitsAllocated": 16,
      "BitsStored": 12,
      "Columns": 384,
      "EchoNumbers": 1,
      "EchoTime": 30.0,
      "EchoTrainLength": 1,
      "FlipAngle": 90.0,
      "HighBit": 11,
      "ImageOrientationPatient": [0.99950615957797, 0.03135223493527, -0.0021152612742, -0.0314107686543, 0.99875144487711, -0.0388447547092],
      "ImagePositionPatient": [-747.06770648219, -830.65709023775, -32.903509421514],
      "ImageType": [
        "ORIGINAL",
        "PRIMARY",
        "M",
        "ND",
        "MOSAIC"
],
      "ImagedNucleus": "1H",
      "ImagingFrequency": 123.25564,
      "InPlanePhaseEncodingDirection": "COL",
      "MRAcquisitionType": "2D",
      "MagneticFieldStrength": 3.0,
      "Manufacturer": "SIEMENS",
      "ManufacturerModelName": "TrioTim",
      "MedicalAlerts": "MEDALERTS",
      "Modality": "MR",
      "NumberOfAverages": 1.0,
      "NumberOfPhaseEncodingSteps": 64,
      "PercentPhaseFieldOfView": 100.0,
      "PercentSampling": 100.0,
      "PerformedProcedureStepStartTime": "140949.890000",
      "PhotometricInterpretation": "MONOCHROME2",
      "PixelBandwidth": 2298.0,
      "PixelRepresentation": 0,
      "PixelSpacing": [4.0, 4.0],
      "ProtocolName": "rtfmri_neurofeedback_AvatarAuditivo",
      "RepetitionTime": 2000.0,
      "RequestAttributesSequence": [
        {
          "RequestedProcedureID": "bdce7d2d-2ec7-4d",
          "ScheduledProcedureStepDescription": "Unknown",
          "ScheduledProcedureStepID": "bdce7d2d-2ec7-4d"
        }
],
      "Rows": 384,
      "SAR": 0.1452037986012,
      "SamplesPerPixel": 1,
      "ScanOptions": "FS",
      "ScanningSequence": "EP",
      "SequenceName": "*epfid2d1_64",
      "SequenceVariant": "SK",
      "SeriesDescription": "rtfmri_neurofeedback_AvatarAuditivo",
      "SeriesNumber": 8,
      "SeriesTime": "152723.265000",
      "SliceLocation": -65.852968033003,
      "SliceThickness": 3.0,
      "SmallestImagePixelValue": 0,
      "SoftwareVersions": "syngo MR B17",
      "SpacingBetweenSlices": 3.0000000038701,
      "SpecificCharacterSet": "ISO_IR 100",
      "StudyID": "bdce7d2d-2ec7-4d",
      "StudyTime": "140949.828000",
      "TransmitCoilName": "Body",
      "VariableFlipAngleFlag": "N",
      "WindowCenterWidthExplanation": "Algo1",
      "dBdt": 0.0},
    "slices": {}
  },
  "time": {
    "samples": {
      "AcquisitionNumber": [1, 2, 3, 4, 5, 6, 7, 8, 9, 10, 11, 12, 13, 14, 15, 16, 17, 18, 19, 20, 21, 22, 23, 24, 25, 26, 27, 28, 29, 30, 31, 32, 33, 34, 35, 36, 37, 38, 39, 40, 41, 42, 43, 44, 45, 46, 47, 48, 49, 50, 51, 52, 53, 54, 55, 56, 57, 58, 59, 60, 61, 62, 63, 64, 65, 66, 67, 68, 69, 70, 71, 72, 73, 74, 75, 76, 77, 78, 79, 80, 81, 82, 83, 84, 85, 86, 87, 88, 89, 90, 91, 92, 93, 94, 95, 96, 97, 98, 99, 100, 101, 102, 103, 104, 105, 106, 107, 108, 109, 110, 111, 112, 113, 114, 115, 116, 117, 118, 119, 120, 121, 122, 123, 124, 125, 126, 127, 128, 129, 130, 131, 132, 133, 134, 135, 136, 137, 138, 139, 140, 141, 142, 143, 144, 145, 146, 147, 148, 149, 150, 151, 152, 153, 154, 155, 156, 157, 158, 159, 160, 161, 162, 163, 164, 165, 166, 167, 168, 169, 170, 171, 172, 173, 174, 175, 176, 177, 178, 179, 180, 181, 182, 183, 184, 185, 186, 187, 188, 189, 190, 191, 192, 193, 194, 195, 196, 197, 198, 199, 200, 201, 202, 203, 204, 205, 206, 207, 208, 209, 210, 211, 212, 213, 214, 215, 216, 217, 218, 219, 220, 221, 222, 223, 224, 225, 226, 227, 228, 229, 230, 231, 232, 233, 234, 235, 236, 237, 238, 239, 240, 241, 242, 243, 244, 245, 246, 247, 248, 249, 250, 251, 252, 253, 254, 255, 256, 257, 258, 259, 260, 261, 262, 263, 264, 265, 266, 267, 268, 269, 270, 271, 272, 273, 274, 275, 276, 277, 278, 279, 280, 281, 282, 283, 284, 285, 286, 287, 288, 289, 290, 291, 292, 293, 294, 295, 296, 297, 298, 299, 300],
      "AcquisitionTime": ["152718.755000", "152720.762500", "152722.770000", "152724.780000", "152726.787500", "152728.795000", "152730.802500", "152732.810000", "152734.820000", "152736.827500", "152738.835000", "152740.842500", "152742.850000", "152744.860000", "152746.867500", "152748.875000", "152750.882500", "152752.892500", "152754.900000", "152756.907500", "152758.915000", "152800.922500", "152802.932500", "152804.940000", "152806.947500", "152808.955000", "152810.962500", "152812.972500", "152814.980000", "152816.987500", "152818.995000", "152821.005000", "152823.012500", "152825.020000", "152827.027500", "152829.035000", "152831.045000", "152833.052500", "152835.060000", "152837.067500", "152839.075000", "152841.085000", "152843.092500", "152845.100000", "152847.107500", "152849.115000", "152851.125000", "152853.132500", "152855.140000", "152857.147500", "152859.157500", "152901.165000", "152903.172500", "152905.180000", "152907.187500", "152909.197500", "152911.205000", "152913.212500", "152915.220000", "152917.227500", "152919.237500", "152921.245000", "152923.252500", "152925.260000", "152927.270000", "152929.277500", "152931.285000", "152933.292500", "152935.300000", "152937.310000", "152939.317500", "152941.325000", "152943.332500", "152945.340000", "152947.350000", "152949.357500", "152951.365000", "152953.372500", "152955.382500", "152957.390000", "152959.397500", "153001.405000", "153003.412500", "153005.422500", "153007.430000", "153009.437500", "153011.445000", "153013.452500", "153015.462500", "153017.470000", "153019.477500", "153021.485000", "153023.495000", "153025.502500", "153027.510000", "153029.517500", "153031.525000", "153033.535000", "153035.542500", "153037.550000", "153039.557500", "153041.565000", "153043.575000", "153045.582500", "153047.590000", "153049.597500", "153051.605000", "153053.615000", "153055.622500", "153057.630000", "153059.637500", "153101.647500", "153103.655000", "153105.662500", "153107.670000", "153109.677500", "153111.687500", "153113.695000", "153115.702500", "153117.710000", "153119.717500", "153121.727500", "153123.735000", "153125.742500", "153127.750000", "153129.760000", "153131.767500", "153133.775000", "153135.782500", "153137.790000", "153139.800000", "153141.807500", "153143.815000", "153145.822500", "153147.830000", "153149.840000", "153151.847500", "153153.855000", "153155.862500", "153157.872500", "153159.880000", "153201.887500", "153203.895000", "153205.902500", "153207.912500", "153209.920000", "153211.927500", "153213.935000", "153215.942500", "153217.952500", "153219.960000", "153221.967500", "153223.975000", "153225.982500", "153227.992500", "153230.000000", "153232.007500", "153234.015000", "153236.025000", "153238.032500", "153240.040000", "153242.047500", "153244.055000", "153246.065000", "153248.072500", "153250.080000", "153252.087500", "153254.095000", "153256.105000", "153258.112500", "153300.120000", "153302.127500", "153304.137500", "153306.145000", "153308.152500", "153310.160000", "153312.167500", "153314.177500", "153316.185000", "153318.192500", "153320.200000", "153322.207500", "153324.217500", "153326.225000", "153328.232500", "153330.240000", "153332.250000", "153334.257500", "153336.265000", "153338.272500", "153340.280000", "153342.290000", "153344.297500", "153346.305000", "153348.312500", "153350.320000", "153352.330000", "153354.337500", "153356.345000", "153358.352500", "153400.360000", "153402.370000", "153404.377500", "153406.385000", "153408.392500", "153410.402500", "153412.410000", "153414.417500", "153416.425000", "153418.432500", "153420.442500", "153422.450000", "153424.457500", "153426.465000", "153428.472500", "153430.482500", "153432.490000", "153434.497500", "153436.505000", "153438.515000", "153440.522500", "153442.530000", "153444.537500", "153446.545000", "153448.555000", "153450.562500", "153452.570000", "153454.577500", "153456.585000", "153458.595000", "153500.602500", "153502.610000", "153504.617500", "153506.627500", "153508.635000", "153510.642500", "153512.650000", "153514.657500", "153516.667500", "153518.675000", "153520.682500", "153522.690000", "153524.697500", "153526.707500", "153528.715000", "153530.722500", "153532.730000", "153534.737500", "153536.747500", "153538.755000", "153540.762500", "153542.770000", "153544.780000", "153546.787500", "153548.795000", "153550.802500", "153552.810000", "153554.820000", "153556.827500", "153558.835000", "153600.842500", "153602.850000", "153604.860000", "153606.867500", "153608.875000", "153610.882500", "153612.892500", "153614.900000", "153616.907500", "153618.915000", "153620.922500", "153622.932500", "153624.940000", "153626.947500", "153628.955000", "153630.962500", "153632.972500", "153634.980000", "153636.987500", "153638.995000", "153641.005000", "153643.012500", "153645.020000", "153647.027500", "153649.035000", "153651.045000", "153653.052500", "153655.060000", "153657.067500", "153659.075000", "153701.085000", "153703.092500", "153705.100000", "153707.107500", "153709.115000", "153711.125000", "153713.132500", "153715.140000", "153717.147500", "153719.157500"],
      "ContentTime": ["152723.265000", "152725.250000", "152727.250000", "152729.250000", "152731.250000", "152733.250000", "152735.250000", "152737.250000", "152739.250000", "152741.250000", "152743.250000", "152745.250000", "152747.250000", "152749.250000", "152751.250000", "152753.250000", "152755.250000", "152757.250000", "152759.250000", "152801.250000", "152803.250000", "152805.250000", "152807.250000", "152809.250000", "152811.265000", "152813.250000", "152815.250000", "152817.250000", "152819.250000", "152821.250000", "152823.250000", "152825.250000", "152827.250000", "152829.250000", "152831.250000", "152833.250000", "152835.250000", "152837.250000", "152839.250000", "152841.250000", "152843.250000", "152845.250000", "152847.250000", "152849.250000", "152851.250000", "152853.250000", "152855.250000", "152857.250000", "152859.250000", "152901.250000", "152903.250000", "152905.250000", "152907.250000", "152909.250000", "152911.250000", "152913.250000", "152915.250000", "152917.250000", "152919.250000", "152921.250000", "152923.250000", "152925.250000", "152927.250000", "152929.250000", "152931.250000", "152933.250000", "152935.250000", "152937.250000", "152939.250000", "152941.250000", "152943.250000", "152945.250000", "152947.250000", "152949.250000", "152951.250000", "152953.250000", "152955.250000", "152957.250000", "152959.250000", "153001.250000", "153003.250000", "153005.250000", "153007.250000", "153009.250000", "153011.250000", "153013.250000", "153015.250000", "153017.250000", "153019.250000", "153021.250000", "153023.250000", "153025.250000", "153027.250000", "153029.250000", "153031.250000", "153033.250000", "153035.250000", "153037.250000", "153039.250000", "153041.250000", "153043.250000", "153045.250000", "153047.250000", "153049.250000", "153051.250000", "153053.250000", "153055.250000", "153057.250000", "153059.250000", "153101.250000", "153103.250000", "153105.250000", "153107.250000", "153109.250000", "153111.250000", "153113.250000", "153115.250000", "153117.250000", "153119.250000", "153121.250000", "153123.250000", "153125.250000", "153127.250000", "153129.250000", "153131.250000", "153133.250000", "153135.250000", "153137.250000", "153139.250000", "153141.250000", "153143.250000", "153145.250000", "153147.250000", "153149.250000", "153151.250000", "153153.250000", "153155.250000", "153157.250000", "153159.250000", "153201.250000", "153203.250000", "153205.250000", "153207.250000", "153209.250000", "153211.250000", "153213.250000", "153215.250000", "153217.250000", "153219.250000", "153221.250000", "153223.250000", "153225.250000", "153227.250000", "153229.250000", "153231.250000", "153233.250000", "153235.250000", "153237.250000", "153239.250000", "153241.250000", "153243.250000", "153245.250000", "153247.250000", "153249.250000", "153251.250000", "153253.250000", "153255.250000", "153257.250000", "153259.250000", "153301.250000", "153303.250000", "153305.250000", "153307.250000", "153309.250000", "153311.250000", "153313.250000", "153315.250000", "153317.250000", "153319.250000", "153321.250000", "153323.250000", "153325.250000", "153327.250000", "153329.250000", "153331.250000", "153333.250000", "153335.250000", "153337.250000", "153339.250000", "153341.250000", "153343.250000", "153345.250000", "153347.250000", "153349.250000", "153351.250000", "153353.265000", "153355.250000", "153357.250000", "153359.250000", "153401.250000", "153403.250000", "153405.250000", "153407.250000", "153409.250000", "153411.250000", "153413.250000", "153415.250000", "153417.250000", "153419.250000", "153421.250000", "153423.250000", "153425.250000", "153427.250000", "153429.250000", "153431.250000", "153433.250000", "153435.250000", "153437.250000", "153439.250000", "153441.250000", "153443.250000", "153445.250000", "153447.250000", "153449.250000", "153451.250000", "153453.250000", "153455.250000", "153457.250000", "153459.250000", "153501.250000", "153503.250000", "153505.250000", "153507.250000", "153509.250000", "153511.250000", "153513.250000", "153515.250000", "153517.265000", "153519.250000", "153521.250000", "153523.250000", "153525.250000", "153527.250000", "153529.250000", "153531.250000", "153533.250000", "153535.250000", "153537.250000", "153539.250000", "153541.250000", "153543.250000", "153545.250000", "153547.250000", "153549.250000", "153551.250000", "153553.250000", "153555.250000", "153557.250000", "153559.250000", "153601.250000", "153603.250000", "153605.250000", "153607.250000", "153609.250000", "153611.250000", "153613.250000", "153615.250000", "153617.250000", "153619.250000", "153621.250000", "153623.250000", "153625.250000", "153627.250000", "153629.250000", "153631.250000", "153633.250000", "153635.250000", "153637.250000", "153639.250000", "153641.265000", "153643.250000", "153645.250000", "153647.250000", "153649.250000", "153651.250000", "153653.250000", "153655.250000", "153657.250000", "153659.250000", "153701.250000", "153703.250000", "153705.250000", "153707.250000", "153709.250000", "153711.250000", "153713.250000", "153715.250000", "153717.265000", "153719.250000", "153720.859000"],
      "InstanceCreationTime": ["152723.265000", "152725.250000", "152727.250000", "152729.250000", "152731.250000", "152733.250000", "152735.250000", "152737.250000", "152739.250000", "152741.250000", "152743.250000", "152745.250000", "152747.250000", "152749.250000", "152751.250000", "152753.250000", "152755.250000", "152757.250000", "152759.250000", "152801.250000", "152803.250000", "152805.250000", "152807.250000", "152809.250000", "152811.265000", "152813.250000", "152815.250000", "152817.250000", "152819.250000", "152821.250000", "152823.250000", "152825.250000", "152827.250000", "152829.250000", "152831.250000", "152833.250000", "152835.250000", "152837.250000", "152839.250000", "152841.250000", "152843.250000", "152845.250000", "152847.250000", "152849.250000", "152851.250000", "152853.250000", "152855.250000", "152857.250000", "152859.250000", "152901.250000", "152903.250000", "152905.250000", "152907.250000", "152909.250000", "152911.250000", "152913.250000", "152915.250000", "152917.250000", "152919.250000", "152921.250000", "152923.250000", "152925.250000", "152927.250000", "152929.250000", "152931.250000", "152933.250000", "152935.250000", "152937.250000", "152939.250000", "152941.250000", "152943.250000", "152945.250000", "152947.250000", "152949.250000", "152951.250000", "152953.250000", "152955.250000", "152957.250000", "152959.250000", "153001.250000", "153003.250000", "153005.250000", "153007.250000", "153009.250000", "153011.250000", "153013.250000", "153015.250000", "153017.250000", "153019.250000", "153021.250000", "153023.250000", "153025.250000", "153027.250000", "153029.250000", "153031.250000", "153033.250000", "153035.250000", "153037.250000", "153039.250000", "153041.250000", "153043.250000", "153045.250000", "153047.250000", "153049.250000", "153051.250000", "153053.250000", "153055.250000", "153057.250000", "153059.250000", "153101.250000", "153103.250000", "153105.250000", "153107.250000", "153109.250000", "153111.250000", "153113.250000", "153115.250000", "153117.250000", "153119.250000", "153121.250000", "153123.250000", "153125.250000", "153127.250000", "153129.250000", "153131.250000", "153133.250000", "153135.250000", "153137.250000", "153139.250000", "153141.250000", "153143.250000", "153145.250000", "153147.250000", "153149.250000", "153151.250000", "153153.250000", "153155.250000", "153157.250000", "153159.250000", "153201.250000", "153203.250000", "153205.250000", "153207.250000", "153209.250000", "153211.250000", "153213.250000", "153215.250000", "153217.250000", "153219.250000", "153221.250000", "153223.250000", "153225.250000", "153227.250000", "153229.250000", "153231.250000", "153233.250000", "153235.250000", "153237.250000", "153239.250000", "153241.250000", "153243.250000", "153245.250000", "153247.250000", "153249.250000", "153251.250000", "153253.250000", "153255.250000", "153257.250000", "153259.250000", "153301.250000", "153303.250000", "153305.250000", "153307.250000", "153309.250000", "153311.250000", "153313.250000", "153315.250000", "153317.250000", "153319.250000", "153321.250000", "153323.250000", "153325.250000", "153327.250000", "153329.250000", "153331.250000", "153333.250000", "153335.250000", "153337.250000", "153339.250000", "153341.250000", "153343.250000", "153345.250000", "153347.250000", "153349.250000", "153351.250000", "153353.265000", "153355.250000", "153357.250000", "153359.250000", "153401.250000", "153403.250000", "153405.250000", "153407.250000", "153409.250000", "153411.250000", "153413.250000", "153415.250000", "153417.250000", "153419.250000", "153421.250000", "153423.250000", "153425.250000", "153427.250000", "153429.250000", "153431.250000", "153433.250000", "153435.250000", "153437.250000", "153439.250000", "153441.250000", "153443.250000", "153445.250000", "153447.250000", "153449.250000", "153451.250000", "153453.250000", "153455.250000", "153457.250000", "153459.250000", "153501.250000", "153503.250000", "153505.250000", "153507.250000", "153509.250000", "153511.250000", "153513.250000", "153515.250000", "153517.265000", "153519.250000", "153521.250000", "153523.250000", "153525.250000", "153527.250000", "153529.250000", "153531.250000", "153533.250000", "153535.250000", "153537.250000", "153539.250000", "153541.250000", "153543.250000", "153545.250000", "153547.250000", "153549.250000", "153551.250000", "153553.250000", "153555.250000", "153557.250000", "153559.250000", "153601.250000", "153603.250000", "153605.250000", "153607.250000", "153609.250000", "153611.250000", "153613.250000", "153615.250000", "153617.250000", "153619.250000", "153621.250000", "153623.250000", "153625.250000", "153627.250000", "153629.250000", "153631.250000", "153633.250000", "153635.250000", "153637.250000", "153639.250000", "153641.265000", "153643.250000", "153645.250000", "153647.250000", "153649.250000", "153651.250000", "153653.250000", "153655.250000", "153657.250000", "153659.250000", "153701.250000", "153703.250000", "153705.250000", "153707.250000", "153709.250000", "153711.250000", "153713.250000", "153715.250000", "153717.265000", "153719.250000", "153720.859000"],
      "InstanceNumber": [1, 2, 3, 4, 5, 6, 7, 8, 9, 10, 11, 12, 13, 14, 15, 16, 17, 18, 19, 20, 21, 22, 23, 24, 25, 26, 27, 28, 29, 30, 31, 32, 33, 34, 35, 36, 37, 38, 39, 40, 41, 42, 43, 44, 45, 46, 47, 48, 49, 50, 51, 52, 53, 54, 55, 56, 57, 58, 59, 60, 61, 62, 63, 64, 65, 66, 67, 68, 69, 70, 71, 72, 73, 74, 75, 76, 77, 78, 79, 80, 81, 82, 83, 84, 85, 86, 87, 88, 89, 90, 91, 92, 93, 94, 95, 96, 97, 98, 99, 100, 101, 102, 103, 104, 105, 106, 107, 108, 109, 110, 111, 112, 113, 114, 115, 116, 117, 118, 119, 120, 121, 122, 123, 124, 125, 126, 127, 128, 129, 130, 131, 132, 133, 134, 135, 136, 137, 138, 139, 140, 141, 142, 143, 144, 145, 146, 147, 148, 149, 150, 151, 152, 153, 154, 155, 156, 157, 158, 159, 160, 161, 162, 163, 164, 165, 166, 167, 168, 169, 170, 171, 172, 173, 174, 175, 176, 177, 178, 179, 180, 181, 182, 183, 184, 185, 186, 187, 188, 189, 190, 191, 192, 193, 194, 195, 196, 197, 198, 199, 200, 201, 202, 203, 204, 205, 206, 207, 208, 209, 210, 211, 212, 213, 214, 215, 216, 217, 218, 219, 220, 221, 222, 223, 224, 225, 226, 227, 228, 229, 230, 231, 232, 233, 234, 235, 236, 237, 238, 239, 240, 241, 242, 243, 244, 245, 246, 247, 248, 249, 250, 251, 252, 253, 254, 255, 256, 257, 258, 259, 260, 261, 262, 263, 264, 265, 266, 267, 268, 269, 270, 271, 272, 273, 274, 275, 276, 277, 278, 279, 280, 281, 282, 283, 284, 285, 286, 287, 288, 289, 290, 291, 292, 293, 294, 295, 296, 297, 298, 299, 300],
      "LargestImagePixelValue": [1586, 1539, 1520, 1519, 1522, 1525, 1522, 1526, 1515, 1533, 1525, 1523, 1528, 1528, 1538, 1515, 1520, 1515, 1511, 1520, 1526, 1513, 1519, 1515, 1511, 1521, 1521, 1513, 1487, 1517, 1519, 1496, 1511, 1517, 1501, 1512, 1503, 1507, 1503, 1504, 1506, 1506, 1501, 1514, 1505, 1496, 1499, 1517, 1510, 1497, 1511, 1500, 1490, 1506, 1514, 1498, 1498, 1518, 1505, 1485, 1498, 1492, 1488, 1485, 1497, 1490, 1475, 1488, 1498, 1485, 1486, 1486, 1500, 1490, 1508, 1491, 1499, 1497, 1500, 1502, 1485, 1499, 1493, 1487, 1491, 1493, 1504, 1490, 1478, 1494, 1481, 1495, 1487, 1479, 1497, 1495, 1478, 1490, 1506, 1496, 1478, 1491, 1494, 1480, 1494, 1486, 1502, 1486, 1493, 1497, 1505, 1492, 1491, 1496, 1494, 1495, 1498, 1519, 1514, 1510, 1502, 1505, 1501, 1497, 1514, 1511, 1498, 1510, 1504, 1512, 1496, 1503, 1515, 1515, 1499, 1496, 1491, 1515, 1500, 1482, 1511, 1511, 1519, 1517, 1515, 1506, 1509, 1512, 1523, 1504, 1513, 1530, 1500, 1512, 1518, 1503, 1517, 1517, 1515, 1500, 1509, 1518, 1513, 1529, 1513, 1515, 1504, 1518, 1514, 1527, 1518, 1524, 1517, 1509, 1530, 1519, 1517, 1515, 1518, 1521, 1511, 1506, 1523, 1503, 1509, 1515, 1518, 1498, 1516, 1516, 1519, 1515, 1513, 1506, 1511, 1530, 1516, 1508, 1505, 1512, 1516, 1507, 1519, 1526, 1506, 1523, 1531, 1518, 1507, 1516, 1529, 1504, 1516, 1514, 1515, 1514, 1520, 1527, 1525, 1524, 1530, 1518, 1528, 1522, 1533, 1521, 1507, 1515, 1528, 1532, 1522, 1528, 1524, 1520, 1516, 1525, 1532, 1525, 1530, 1526, 1517, 1532, 1543, 1517, 1529, 1522, 1526, 1532, 1517, 1532, 1522, 1523, 1531, 1537, 1536, 1523, 1535, 1533, 1524, 1531, 1514, 1515, 1530, 1536, 1523, 1534, 1529, 1513, 1534, 1514, 1520, 1530, 1528, 1522, 1535, 1526, 1520, 1532, 1537, 1522, 1522, 1531, 1533, 1509, 1523, 1519, 1515, 1519, 1521, 1514, 1537, 1529, 1512, 1519, 1528, 1508, 1531, 1528, 1513, 1526],
      "WindowCenter": [647.0, 646.0, 647.0, 647.0, 647.0, 647.0, 646.0, 646.0, 646.0, 645.0, 645.0, 645.0, 645.0, 646.0, 647.0, 647.0, 646.0, 646.0, 646.0, 646.0, 645.0, 645.0, 646.0, 646.0, 646.0, 647.0, 647.0, 647.0, 646.0, 646.0, 646.0, 646.0, 646.0, 645.0, 645.0, 645.0, 646.0, 646.0, 646.0, 647.0, 647.0, 646.0, 646.0, 646.0, 646.0, 646.0, 645.0, 645.0, 646.0, 646.0, 646.0, 646.0, 646.0, 646.0, 646.0, 645.0, 645.0, 645.0, 645.0, 644.0, 644.0, 645.0, 647.0, 646.0, 645.0, 645.0, 645.0, 645.0, 645.0, 644.0, 645.0, 645.0, 645.0, 645.0, 646.0, 645.0, 645.0, 644.0, 644.0, 645.0, 645.0, 645.0, 645.0, 645.0, 645.0, 646.0, 646.0, 645.0, 644.0, 644.0, 644.0, 645.0, 644.0, 644.0, 645.0, 646.0, 645.0, 645.0, 645.0, 646.0, 645.0, 644.0, 645.0, 645.0, 645.0, 644.0, 645.0, 645.0, 645.0, 645.0, 646.0, 646.0, 646.0, 645.0, 645.0, 645.0, 645.0, 644.0, 645.0, 645.0, 645.0, 644.0, 645.0, 645.0, 645.0, 645.0, 645.0, 645.0, 645.0, 645.0, 644.0, 645.0, 645.0, 646.0, 646.0, 646.0, 646.0, 645.0, 645.0, 644.0, 645.0, 645.0, 646.0, 646.0, 646.0, 646.0, 646.0, 646.0, 645.0, 645.0, 645.0, 645.0, 645.0, 645.0, 645.0, 645.0, 645.0, 645.0, 646.0, 646.0, 645.0, 645.0, 645.0, 645.0, 645.0, 646.0, 645.0, 645.0, 645.0, 646.0, 646.0, 646.0, 646.0, 645.0, 645.0, 646.0, 646.0, 645.0, 645.0, 645.0, 645.0, 645.0, 646.0, 646.0, 646.0, 645.0, 645.0, 645.0, 645.0, 645.0, 646.0, 645.0, 645.0, 646.0, 647.0, 646.0, 646.0, 645.0, 645.0, 645.0, 646.0, 646.0, 645.0, 645.0, 646.0, 645.0, 646.0, 646.0, 646.0, 645.0, 645.0, 645.0, 646.0, 645.0, 645.0, 645.0, 646.0, 647.0, 646.0, 646.0, 645.0, 645.0, 645.0, 645.0, 645.0, 646.0, 647.0, 646.0, 645.0, 646.0, 647.0, 646.0, 646.0, 645.0, 645.0, 646.0, 646.0, 645.0, 645.0, 646.0, 645.0, 646.0, 647.0, 646.0, 646.0, 645.0, 645.0, 646.0, 646.0, 645.0, 645.0, 646.0, 646.0, 646.0, 646.0, 646.0, 646.0, 646.0, 645.0, 646.0, 646.0, 645.0, 645.0, 645.0, 646.0, 646.0, 646.0, 646.0, 646.0, 646.0, 646.0, 647.0, 646.0, 646.0, 646.0, 646.0, 646.0, 646.0, 647.0, 647.0, 646.0, 646.0, 646.0, 645.0, 646.0, 646.0, 645.0, 646.0, 646.0, 646.0, 646.0, 647.0, 646.0, 645.0, 646.0, 646.0, 647.0, 647.0, 646.0, 646.0],
