{
  "AcquisitionMatrixPE": 64,
  "AcquisitionNumber": 1,
  "AcquisitionTime": "12:27:58.745000",
  "BandwidthPerPixelPhaseEncode": 31.25,
  "BaseResolution": 64,
  "CoilCombinationMethod": "Sum of Squares",
  "CoilString": "C:HEA;HEP",
  "ConversionSoftware": "dcm2niix",
  "ConversionSoftwareVersion": "v1.0.20211006",
  "DerivedVendorReportedEchoSpacing": 0.0005,
  "DeviceSerialNumber": "35377",
  "DwellTime": 3.4e-06,
  "EchoTime": 0.03,
  "EffectiveEchoSpacing": 0.0005,
  "FlipAngle": 90,
  "ImageOrientationPatientDICOM": [0.998125, -0.0502415, -0.0349588, 0.0575515, 0.964802, 0.256602],
  "ImageOrientationText": "Tra>Cor(15.0)>Sag(-1.2)",
  "ImageType": [
    "ORIGINAL",
    "PRIMARY",
    "M",
    "ND",
    "MOSAIC"
],
  "ImagingFrequency": 123.256,
  "InPlanePhaseEncodingDirectionDICOM": "COL",
  "InstitutionAddress": "Azinhaga Santa Comba StreetNo,Coimbra,District,PT,3000",
  "InstitutionName": "IBILI",
  "InstitutionalDepartmentName": "Department",
  "MRAcquisitionType": "2D",
  "MagneticFieldStrength": 3,
  "Manufacturer": "Siemens",
  "ManufacturersModelName": "TrioTim",
  "MatrixCoilMode": "SENSE",
  "Modality": "MR",
  "PartialFourier": 1,
  "PatientPosition": "HFS",
  "PercentPhaseFOV": 100,
  "PercentSampling": 100,
  "PhaseEncodingDirection": "j-",
  "PhaseEncodingSteps": 64,
  "PhaseResolution": 1,
  "PixelBandwidth": 2298,
  "ProcedureStepDescription": "Unknown",
  "ProtocolName": "rtfmri_neurofeedback_AvatarNofeedback",
  "PulseSequenceDetails": "%SiemensSeq%\\ep2d_bold",
  "ReceiveCoilName": "HeadMatrix",
  "ReconMatrixPE": 64,
  "RepetitionTime": 2,
  "SAR": 0.154359,
  "ScanOptions": "FS",
  "ScanningSequence": "EP",
  "SequenceName": "*epfid2d1_64",
  "SequenceVariant": "SK",
  "SeriesDescription": "rtfmri_neurofeedback_AvatarNofeedback",
  "SeriesNumber": 7,
  "ShimSetting": [15814, 7385, 21391, 595, 285, -707, 219, 83],
  "SliceThickness": 3,
  "SliceTiming": [0, 1.0325, 0.06, 1.095, 0.12, 1.155, 0.1825, 1.215, 0.2425, 1.2775, 0.3025, 1.3375, 0.365, 1.3975, 0.425, 1.46, 0.485, 1.52, 0.5475, 1.58, 0.6075, 1.6425, 0.6675, 1.7025, 0.73, 1.7625, 0.79, 1.825, 0.85, 1.885, 0.9125, 1.945, 0.9725],
  "SoftwareVersions": "syngo MR B17",
  "SpacingBetweenSlices": 3,
  "StationName": "MRC35377",
  "TaskName": "nofeedback",
  "TotalReadoutTime": 0.0315,
  "TxRefAmp": 349.461,
  "dcmmeta_affine": [
    [-3.9925003051757812, 0.2302059829235077, -0.06250888109207153, 134.79373168945312],
    [0.20096594095230103, 3.8592090606689453, 0.7743975520133972, -94.18177032470703],
    [-0.13983526825904846, -1.0264067649841309, 2.8976542949676514, -2.776134490966797],
    [0.0, 0.0, 0.0, 1.0]
],
  "dcmmeta_reorient_transform": [
    [0.0, -1.0, 0.0, 63.0],
    [1.0, 0.0, 0.0, 0.0],
    [0.0, 0.0, 1.0, 0.0],
    [0.0, 0.0, 0.0, 1.0]
],
  "dcmmeta_shape": [64, 64, 33, 300],
  "dcmmeta_slice_dim": 2,
  "dcmmeta_version": 0.6,
  "global": {
    "const": {
      "AccessionNumber": "PAS20150305-0034",
      "AcquisitionMatrix": [64, 0, 0, 64],
      "Allergies": "MEDALERGIESL",
      "AngioFlag": "N",
      "BitsAllocated": 16,
      "BitsStored": 12,
      "Columns": 384,
      "EchoNumbers": 1,
      "EchoTime": 30.0,
      "EchoTrainLength": 1,
      "FlipAngle": 90.0,
      "HighBit": 11,
      "ImageOrientationPatient": [0.99812507952821, -0.0502414853227, -0.0349588153313, 0.05755149422099, 0.96480225691362, 0.25660169634537],
      "ImagePositionPatient": [-824.92971838822, -734.26729515566, -209.2912058854],
      "ImageType": [
        "ORIGINAL",
        "PRIMARY",
        "M",
        "ND",
        "MOSAIC"
],
      "ImagedNucleus": "1H",
      "ImagingFrequency": 123.255604,
      "InPlanePhaseEncodingDirection": "COL",
      "MRAcquisitionType": "2D",
      "MagneticFieldStrength": 3.0,
      "Manufacturer": "SIEMENS",
      "ManufacturerModelName": "TrioTim",
      "MedicalAlerts": "MEDALERTS",
      "Modality": "MR",
      "NumberOfAverages": 1.0,
      "NumberOfPhaseEncodingSteps": 64,
      "PercentPhaseFieldOfView": 100.0,
      "PercentSampling": 100.0,
      "PerformedProcedureStepStartTime": "113258.859000",
      "PhotometricInterpretation": "MONOCHROME2",
      "PixelBandwidth": 2298.0,
      "PixelRepresentation": 0,
      "PixelSpacing": [4.0, 4.0],
      "ProtocolName": "rtfmri_neurofeedback_AvatarNofeedback",
      "RepetitionTime": 2000.0,
      "RequestAttributesSequence": [
        {
          "RequestedProcedureID": "5c434816-a9e5-4a",
          "ScheduledProcedureStepDescription": "Unknown",
          "ScheduledProcedureStepID": "5c434816-a9e5-4a"
        }
],
      "Rows": 384,
      "SAR": 0.15435906695833,
      "SamplesPerPixel": 1,
      "ScanOptions": "FS",
      "ScanningSequence": "EP",
      "SequenceName": "*epfid2d1_64",
      "SequenceVariant": "SK",
      "SeriesDescription": "rtfmri_neurofeedback_AvatarNofeedback",
      "SeriesNumber": 7,
      "SeriesTime": "122803.140000",
      "SliceLocation": -29.801405021225,
      "SliceThickness": 3.0,
      "SmallestImagePixelValue": 0,
      "SoftwareVersions": "syngo MR B17",
      "SpacingBetweenSlices": 3.0000000048422,
      "SpecificCharacterSet": "ISO_IR 100",
      "StudyID": "5c434816-a9e5-4a",
      "StudyTime": "113258.796000",
      "TransmitCoilName": "Body",
      "VariableFlipAngleFlag": "N",
      "WindowCenterWidthExplanation": "Algo1",
      "dBdt": 0.0},
    "slices": {}
  },
  "time": {
    "samples": {
      "AcquisitionNumber": [1, 2, 3, 4, 5, 6, 7, 8, 9, 10, 11, 12, 13, 14, 15, 16, 17, 18, 19, 20, 21, 22, 23, 24, 25, 26, 27, 28, 29, 30, 31, 32, 33, 34, 35, 36, 37, 38, 39, 40, 41, 42, 43, 44, 45, 46, 47, 48, 49, 50, 51, 52, 53, 54, 55, 56, 57, 58, 59, 60, 61, 62, 63, 64, 65, 66, 67, 68, 69, 70, 71, 72, 73, 74, 75, 76, 77, 78, 79, 80, 81, 82, 83, 84, 85, 86, 87, 88, 89, 90, 91, 92, 93, 94, 95, 96, 97, 98, 99, 100, 101, 102, 103, 104, 105, 106, 107, 108, 109, 110, 111, 112, 113, 114, 115, 116, 117, 118, 119, 120, 121, 122, 123, 124, 125, 126, 127, 128, 129, 130, 131, 132, 133, 134, 135, 136, 137, 138, 139, 140, 141, 142, 143, 144, 145, 146, 147, 148, 149, 150, 151, 152, 153, 154, 155, 156, 157, 158, 159, 160, 161, 162, 163, 164, 165, 166, 167, 168, 169, 170, 171, 172, 173, 174, 175, 176, 177, 178, 179, 180, 181, 182, 183, 184, 185, 186, 187, 188, 189, 190, 191, 192, 193, 194, 195, 196, 197, 198, 199, 200, 201, 202, 203, 204, 205, 206, 207, 208, 209, 210, 211, 212, 213, 214, 215, 216, 217, 218, 219, 220, 221, 222, 223, 224, 225, 226, 227, 228, 229, 230, 231, 232, 233, 234, 235, 236, 237, 238, 239, 240, 241, 242, 243, 244, 245, 246, 247, 248, 249, 250, 251, 252, 253, 254, 255, 256, 257, 258, 259, 260, 261, 262, 263, 264, 265, 266, 267, 268, 269, 270, 271, 272, 273, 274, 275, 276, 277, 278, 279, 280, 281, 282, 283, 284, 285, 286, 287, 288, 289, 290, 291, 292, 293, 294, 295, 296, 297, 298, 299, 300],
      "AcquisitionTime": ["122758.745000", "122800.752500", "122802.760000", "122804.767500", "122806.777500", "122808.785000", "122810.792500", "122812.800000", "122814.810000", "122816.817500", "122818.825000", "122820.832500", "122822.840000", "122824.850000", "122826.857500", "122828.865000", "122830.872500", "122832.880000", "122834.890000", "122836.897500", "122838.905000", "122840.912500", "122842.922500", "122844.930000", "122846.937500", "122848.945000", "122850.952500", "122852.962500", "122854.970000", "122856.977500", "122858.985000", "122900.992500", "122903.002500", "122905.010000", "122907.017500", "122909.025000", "122911.032500", "122913.042500", "122915.050000", "122917.057500", "122919.065000", "122921.075000", "122923.082500", "122925.090000", "122927.097500", "122929.105000", "122931.115000", "122933.122500", "122935.130000", "122937.137500", "122939.145000", "122941.155000", "122943.162500", "122945.170000", "122947.177500", "122949.187500", "122951.195000", "122953.202500", "122955.210000", "122957.217500", "122959.227500", "123001.235000", "123003.242500", "123005.250000", "123007.257500", "123009.267500", "123011.275000", "123013.282500", "123015.290000", "123017.300000", "123019.307500", "123021.315000", "123023.322500", "123025.330000", "123027.340000", "123029.347500", "123031.355000", "123033.362500", "123035.370000", "123037.380000", "123039.387500", "123041.395000", "123043.402500", "123045.410000", "123047.420000", "123049.427500", "123051.435000", "123053.442500", "123055.452500", "123057.460000", "123059.467500", "123101.475000", "123103.482500", "123105.492500", "123107.500000", "123109.507500", "123111.515000", "123113.522500", "123115.532500", "123117.540000", "123119.547500", "123121.555000", "123123.565000", "123125.572500", "123127.580000", "123129.587500", "123131.595000", "123133.605000", "123135.612500", "123137.620000", "123139.627500", "123141.635000", "123143.645000", "123145.652500", "123147.660000", "123149.667500", "123151.677500", "123153.685000", "123155.692500", "123157.700000", "123159.707500", "123201.717500", "123203.725000", "123205.732500", "123207.740000", "123209.747500", "123211.757500", "123213.765000", "123215.772500", "123217.780000", "123219.787500", "123221.797500", "123223.805000", "123225.812500", "123227.820000", "123229.830000", "123231.837500", "123233.845000", "123235.852500", "123237.860000", "123239.870000", "123241.877500", "123243.885000", "123245.892500", "123247.900000", "123249.910000", "123251.917500", "123253.925000", "123255.932500", "123257.942500", "123259.950000", "123301.957500", "123303.965000", "123305.972500", "123307.982500", "123309.990000", "123311.997500", "123314.005000", "123316.012500", "123318.022500", "123320.030000", "123322.037500", "123324.045000", "123326.055000", "123328.062500", "123330.070000", "123332.077500", "123334.085000", "123336.095000", "123338.102500", "123340.110000", "123342.117500", "123344.125000", "123346.135000", "123348.142500", "123350.150000", "123352.157500", "123354.165000", "123356.175000", "123358.182500", "123400.190000", "123402.197500", "123404.207500", "123406.215000", "123408.222500", "123410.230000", "123412.237500", "123414.247500", "123416.255000", "123418.262500", "123420.270000", "123422.277500", "123424.287500", "123426.295000", "123428.302500", "123430.310000", "123432.320000", "123434.327500", "123436.335000", "123438.342500", "123440.350000", "123442.360000", "123444.367500", "123446.375000", "123448.382500", "123450.390000", "123452.400000", "123454.407500", "123456.415000", "123458.422500", "123500.432500", "123502.440000", "123504.447500", "123506.455000", "123508.462500", "123510.472500", "123512.480000", "123514.487500", "123516.495000", "123518.502500", "123520.512500", "123522.520000", "123524.527500", "123526.535000", "123528.545000", "123530.552500", "123532.560000", "123534.567500", "123536.575000", "123538.585000", "123540.592500", "123542.600000", "123544.607500", "123546.615000", "123548.625000", "123550.632500", "123552.640000", "123554.647500", "123556.655000", "123558.665000", "123600.672500", "123602.680000", "123604.687500", "123606.697500", "123608.705000", "123610.712500", "123612.720000", "123614.727500", "123616.737500", "123618.745000", "123620.752500", "123622.760000", "123624.767500", "123626.777500", "123628.785000", "123630.792500", "123632.800000", "123634.810000", "123636.817500", "123638.825000", "123640.832500", "123642.840000", "123644.850000", "123646.857500", "123648.865000", "123650.872500", "123652.880000", "123654.890000", "123656.897500", "123658.905000", "123700.912500", "123702.922500", "123704.930000", "123706.937500", "123708.945000", "123710.952500", "123712.962500", "123714.970000", "123716.977500", "123718.985000", "123720.992500", "123723.002500", "123725.010000", "123727.017500", "123729.025000", "123731.032500", "123733.042500", "123735.050000", "123737.057500", "123739.065000", "123741.075000", "123743.082500", "123745.090000", "123747.097500", "123749.105000", "123751.115000", "123753.122500", "123755.130000", "123757.137500", "123759.145000"],
      "ContentTime": ["122803.140000", "122805.125000", "122807.125000", "122809.125000", "122811.125000", "122813.125000", "122815.125000", "122817.125000", "122819.125000", "122821.125000", "122823.125000", "122825.140000", "122827.140000", "122829.125000", "122831.125000", "122833.125000", "122835.125000", "122837.125000", "122839.125000", "122841.125000", "122843.125000", "122845.125000", "122847.125000", "122849.125000", "122851.125000", "122853.125000", "122855.125000", "122857.125000", "122859.125000", "122901.125000", "122903.125000", "122905.125000", "122907.125000", "122909.125000", "122911.125000", "122913.125000", "122915.125000", "122917.125000", "122919.125000", "122921.125000", "122923.125000", "122925.125000", "122927.125000", "122929.125000", "122931.125000", "122933.125000", "122935.125000", "122937.125000", "122939.125000", "122941.125000", "122943.125000", "122945.125000", "122947.125000", "122949.125000", "122951.125000", "122953.125000", "122955.125000", "122957.125000", "122959.125000", "123001.125000", "123003.125000", "123005.125000", "123007.125000", "123009.125000", "123011.125000", "123013.125000", "123015.125000", "123017.125000", "123019.125000", "123021.125000", "123023.125000", "123025.125000", "123027.125000", "123029.125000", "123031.125000", "123033.125000", "123035.125000", "123037.125000", "123039.125000", "123041.125000", "123043.125000", "123045.125000", "123047.125000", "123049.125000", "123051.125000", "123053.125000", "123055.125000", "123057.125000", "123059.125000", "123101.125000", "123103.125000", "123105.125000", "123107.125000", "123109.125000", "123111.125000", "123113.125000", "123115.140000", "123117.125000", "123119.125000", "123121.125000", "123123.125000", "123125.125000", "123127.125000", "123129.125000", "123131.125000", "123133.125000", "123135.125000", "123137.125000", "123139.125000", "123141.125000", "123143.125000", "123145.125000", "123147.125000", "123149.125000", "123151.125000", "123153.125000", "123155.125000", "123157.125000", "123159.125000", "123201.125000", "123203.125000", "123205.125000", "123207.125000", "123209.125000", "123211.125000", "123213.125000", "123215.125000", "123217.125000", "123219.125000", "123221.125000", "123223.125000", "123225.125000", "123227.125000", "123229.125000", "123231.125000", "123233.125000", "123235.125000", "123237.125000", "123239.125000", "123241.125000", "123243.125000", "123245.125000", "123247.125000", "123249.125000", "123251.125000", "123253.125000", "123255.125000", "123257.125000", "123259.125000", "123301.125000", "123303.125000", "123305.125000", "123307.125000", "123309.125000", "123311.125000", "123313.125000", "123315.125000", "123317.125000", "123319.125000", "123321.125000", "123323.125000", "123325.125000", "123327.125000", "123329.125000", "123331.125000", "123333.125000", "123335.125000", "123337.125000", "123339.125000", "123341.125000", "123343.125000", "123345.125000", "123347.125000", "123349.125000", "123351.125000", "123353.125000", "123355.125000", "123357.125000", "123359.125000", "123401.125000", "123403.125000", "123405.125000", "123407.125000", "123409.125000", "123411.125000", "123413.125000", "123415.125000", "123417.125000", "123419.125000", "123421.125000", "123423.125000", "123425.125000", "123427.125000", "123429.125000", "123431.125000", "123433.125000", "123435.125000", "123437.125000", "123439.125000", "123441.125000", "123443.125000", "123445.125000", "123447.125000", "123449.125000", "123451.125000", "123453.125000", "123455.125000", "123457.125000", "123459.125000", "123501.125000", "123503.125000", "123505.125000", "123507.125000", "123509.125000", "123511.125000", "123513.125000", "123515.125000", "123517.125000", "123519.125000", "123521.125000", "123523.125000", "123525.125000", "123527.125000", "123529.125000", "123531.125000", "123533.125000", "123535.125000", "123537.125000", "123539.125000", "123541.125000", "123543.125000", "123545.125000", "123547.125000", "123549.125000", "123551.125000", "123553.125000", "123555.125000", "123557.125000", "123559.125000", "123601.125000", "123603.125000", "123605.125000", "123607.125000", "123609.125000", "123611.125000", "123613.125000", "123615.125000", "123617.125000", "123619.125000", "123621.125000", "123623.125000", "123625.125000", "123627.125000", "123629.125000", "123631.125000", "123633.125000", "123635.125000", "123637.125000", "123639.125000", "123641.125000", "123643.125000", "123645.125000", "123647.125000", "123649.125000", "123651.125000", "123653.125000", "123655.125000", "123657.125000", "123659.125000", "123701.125000", "123703.125000", "123705.125000", "123707.125000", "123709.125000", "123711.140000", "123713.125000", "123715.125000", "123717.125000", "123719.125000", "123721.125000", "123723.125000", "123725.125000", "123727.125000", "123729.125000", "123731.125000", "123733.125000", "123735.125000", "123737.125000", "123739.125000", "123741.125000", "123743.125000", "123745.125000", "123747.140000", "123749.140000", "123751.125000", "123753.125000", "123755.125000", "123757.125000", "123759.125000", "123800.718000"],
      "InstanceCreationTime": ["122803.140000", "122805.125000", "122807.125000", "122809.125000", "122811.125000", "122813.125000", "122815.125000", "122817.125000", "122819.125000", "122821.125000", "122823.125000", "122825.140000", "122827.140000", "122829.125000", "122831.125000", "122833.125000", "122835.125000", "122837.125000", "122839.125000", "122841.125000", "122843.125000", "122845.125000", "122847.125000", "122849.125000", "122851.125000", "122853.125000", "122855.125000", "122857.125000", "122859.125000", "122901.125000", "122903.125000", "122905.125000", "122907.125000", "122909.125000", "122911.125000", "122913.125000", "122915.125000", "122917.125000", "122919.125000", "122921.125000", "122923.125000", "122925.125000", "122927.125000", "122929.125000", "122931.125000", "122933.125000", "122935.125000", "122937.125000", "122939.125000", "122941.125000", "122943.125000", "122945.125000", "122947.125000", "122949.125000", "122951.125000", "122953.125000", "122955.125000", "122957.125000", "122959.125000", "123001.125000", "123003.125000", "123005.125000", "123007.125000", "123009.125000", "123011.125000", "123013.125000", "123015.125000", "123017.125000", "123019.125000", "123021.125000", "123023.125000", "123025.125000", "123027.125000", "123029.125000", "123031.125000", "123033.125000", "123035.125000", "123037.125000", "123039.125000", "123041.125000", "123043.125000", "123045.125000", "123047.125000", "123049.125000", "123051.125000", "123053.125000", "123055.125000", "123057.125000", "123059.125000", "123101.125000", "123103.125000", "123105.125000", "123107.125000", "123109.125000", "123111.125000", "123113.125000", "123115.140000", "123117.125000", "123119.125000", "123121.125000", "123123.125000", "123125.125000", "123127.125000", "123129.125000", "123131.125000", "123133.125000", "123135.125000", "123137.125000", "123139.125000", "123141.125000", "123143.125000", "123145.125000", "123147.125000", "123149.125000", "123151.125000", "123153.125000", "123155.125000", "123157.125000", "123159.125000", "123201.125000", "123203.125000", "123205.125000", "123207.125000", "123209.125000", "123211.125000", "123213.125000", "123215.125000", "123217.125000", "123219.125000", "123221.125000", "123223.125000", "123225.125000", "123227.125000", "123229.125000", "123231.125000", "123233.125000", "123235.125000", "123237.125000", "123239.125000", "123241.125000", "123243.125000", "123245.125000", "123247.125000", "123249.125000", "123251.125000", "123253.125000", "123255.125000", "123257.125000", "123259.125000", "123301.125000", "123303.125000", "123305.125000", "123307.125000", "123309.125000", "123311.125000", "123313.125000", "123315.125000", "123317.125000", "123319.125000", "123321.125000", "123323.125000", "123325.125000", "123327.125000", "123329.125000", "123331.125000", "123333.125000", "123335.125000", "123337.125000", "123339.125000", "123341.125000", "123343.125000", "123345.125000", "123347.125000", "123349.125000", "123351.125000", "123353.125000", "123355.125000", "123357.125000", "123359.125000", "123401.125000", "123403.125000", "123405.125000", "123407.125000", "123409.125000", "123411.125000", "123413.125000", "123415.125000", "123417.125000", "123419.125000", "123421.125000", "123423.125000", "123425.125000", "123427.125000", "123429.125000", "123431.125000", "123433.125000", "123435.125000", "123437.125000", "123439.125000", "123441.125000", "123443.125000", "123445.125000", "123447.125000", "123449.125000", "123451.125000", "123453.125000", "123455.125000", "123457.125000", "123459.125000", "123501.125000", "123503.125000", "123505.125000", "123507.125000", "123509.125000", "123511.125000", "123513.125000", "123515.125000", "123517.125000", "123519.125000", "123521.125000", "123523.125000", "123525.125000", "123527.125000", "123529.125000", "123531.125000", "123533.125000", "123535.125000", "123537.125000", "123539.125000", "123541.125000", "123543.125000", "123545.125000", "123547.125000", "123549.125000", "123551.125000", "123553.125000", "123555.125000", "123557.125000", "123559.125000", "123601.125000", "123603.125000", "123605.125000", "123607.125000", "123609.125000", "123611.125000", "123613.125000", "123615.125000", "123617.125000", "123619.125000", "123621.125000", "123623.125000", "123625.125000", "123627.125000", "123629.125000", "123631.125000", "123633.125000", "123635.125000", "123637.125000", "123639.125000", "123641.125000", "123643.125000", "123645.125000", "123647.125000", "123649.125000", "123651.125000", "123653.125000", "123655.125000", "123657.125000", "123659.125000", "123701.125000", "123703.125000", "123705.125000", "123707.125000", "123709.125000", "123711.140000", "123713.125000", "123715.125000", "123717.125000", "123719.125000", "123721.125000", "123723.125000", "123725.125000", "123727.125000", "123729.125000", "123731.125000", "123733.125000", "123735.125000", "123737.125000", "123739.125000", "123741.125000", "123743.125000", "123745.125000", "123747.140000", "123749.140000", "123751.125000", "123753.125000", "123755.125000", "123757.125000", "123759.125000", "123800.718000"],
      "InstanceNumber": [1, 2, 3, 4, 5, 6, 7, 8, 9, 10, 11, 12, 13, 14, 15, 16, 17, 18, 19, 20, 21, 22, 23, 24, 25, 26, 27, 28, 29, 30, 31, 32, 33, 34, 35, 36, 37, 38, 39, 40, 41, 42, 43, 44, 45, 46, 47, 48, 49, 50, 51, 52, 53, 54, 55, 56, 57, 58, 59, 60, 61, 62, 63, 64, 65, 66, 67, 68, 69, 70, 71, 72, 73, 74, 75, 76, 77, 78, 79, 80, 81, 82, 83, 84, 85, 86, 87, 88, 89, 90, 91, 92, 93, 94, 95, 96, 97, 98, 99, 100, 101, 102, 103, 104, 105, 106, 107, 108, 109, 110, 111, 112, 113, 114, 115, 116, 117, 118, 119, 120, 121, 122, 123, 124, 125, 126, 127, 128, 129, 130, 131, 132, 133, 134, 135, 136, 137, 138, 139, 140, 141, 142, 143, 144, 145, 146, 147, 148, 149, 150, 151, 152, 153, 154, 155, 156, 157, 158, 159, 160, 161, 162, 163, 164, 165, 166, 167, 168, 169, 170, 171, 172, 173, 174, 175, 176, 177, 178, 179, 180, 181, 182, 183, 184, 185, 186, 187, 188, 189, 190, 191, 192, 193, 194, 195, 196, 197, 198, 199, 200, 201, 202, 203, 204, 205, 206, 207, 208, 209, 210, 211, 212, 213, 214, 215, 216, 217, 218, 219, 220, 221, 222, 223, 224, 225, 226, 227, 228, 229, 230, 231, 232, 233, 234, 235, 236, 237, 238, 239, 240, 241, 242, 243, 244, 245, 246, 247, 248, 249, 250, 251, 252, 253, 254, 255, 256, 257, 258, 259, 260, 261, 262, 263, 264, 265, 266, 267, 268, 269, 270, 271, 272, 273, 274, 275, 276, 277, 278, 279, 280, 281, 282, 283, 284, 285, 286, 287, 288, 289, 290, 291, 292, 293, 294, 295, 296, 297, 298, 299, 300],
      "LargestImagePixelValue": [1722, 1654, 1814, 1610, 1627, 1624, 1649, 1648, 1655, 1652, 1647, 1644, 1657, 1667, 1641, 1648, 1619, 1639, 1644, 1629, 1631, 1640, 1637, 1628, 1650, 1641, 1654, 1652, 1641, 1623, 1647, 1631, 1667, 1651, 1812, 1642, 1626, 1659, 1632, 1624, 1635, 1628, 1644, 1613, 1643, 1629, 1635, 1640, 1637, 1652, 1683, 1625, 1628, 1627, 1627, 1634, 1659, 1648, 1656, 1668, 1619, 1640, 1624, 1639, 1632, 1635, 1622, 1629, 1644, 1609, 1625, 1661, 1614, 1614, 1606, 1632, 1699, 1612, 1621, 1603, 1621, 1632, 1618, 1605, 1615, 1617, 1630, 1623, 1616, 1603, 1624, 1631, 1630, 1637, 1636, 1614, 1615, 1617, 1618, 1622, 1630, 1790, 1617, 1631, 1631, 1640, 1634, 1626, 1654, 1612, 1718, 1614, 1628, 1628, 1599, 1654, 1592, 1623, 1611, 1592, 1597, 1621, 1612, 1658, 1609, 1597, 1603, 1890, 1580, 1604, 1590, 1595, 1590, 1639, 1596, 1593, 1596, 1603, 1609, 1606, 1613, 1603, 1623, 1616, 1631, 1595, 1597, 1610, 1612, 1659, 1610, 1610, 1623, 1716, 1582, 1666, 1589, 1632, 1625, 1639, 1647, 1641, 1650, 1622, 1620, 1637, 1640, 1646, 1650, 1646, 1647, 1649, 1630, 1627, 1622, 1605, 1641, 1605, 1626, 1625, 1627, 1623, 1618, 1597, 1617, 1610, 1602, 1619, 1618, 1607, 1605, 1616, 1620, 1597, 1624, 1632, 1815, 1637, 1834, 1630, 1623, 1663, 1630, 1657, 1621, 1673, 1644, 1644, 1666, 1638, 1638, 1644, 1639, 1662, 1662, 1642, 1660, 1660, 1649, 1662, 1640, 1676, 1625, 1669, 1667, 1645, 1654, 1663, 1670, 1651, 1651, 1652, 1653, 1660, 1649, 1661, 1630, 1677, 1644, 1650, 1667, 1655, 1665, 1650, 1663, 1691, 1669, 1665, 1651, 1651, 1654, 1648, 1665, 1628, 1666, 1664, 1689, 1656, 1640, 1668, 1668, 1661, 1648, 1676, 1662, 1664, 1643, 1651, 1655, 1665, 1657, 1638, 1663, 1645, 1640, 1645, 1632, 1650, 1643, 1658, 1662, 1637, 1653, 1650, 1641, 1638, 1657, 1635, 1649, 1657, 1653, 1667, 1657, 1656, 1656, 1647, 1663, 1659, 1628, 1794],
      "WindowCenter": [688.0, 686.0, 686.0, 684.0, 684.0, 684.0, 685.0, 684.0, 684.0, 683.0, 684.0, 685.0, 685.0, 685.0, 685.0, 685.0, 685.0, 685.0, 685.0, 684.0, 684.0, 685.0, 685.0, 685.0, 685.0, 685.0, 687.0, 686.0, 686.0, 684.0, 685.0, 686.0, 685.0, 684.0, 684.0, 683.0, 683.0, 685.0, 686.0, 685.0, 685.0, 684.0, 684.0, 685.0, 685.0, 684.0, 684.0, 685.0, 686.0, 686.0, 686.0, 685.0, 685.0, 685.0, 685.0, 685.0, 685.0, 685.0, 685.0, 685.0, 685.0, 685.0, 685.0, 685.0, 685.0, 685.0, 685.0, 685.0, 685.0, 685.0, 685.0, 686.0, 685.0, 686.0, 685.0, 686.0, 686.0, 685.0, 685.0, 684.0, 685.0, 685.0, 684.0, 684.0, 685.0, 686.0, 687.0, 686.0, 685.0, 685.0, 685.0, 685.0, 686.0, 686.0, 685.0, 686.0, 686.0, 686.0, 686.0, 686.0, 685.0, 686.0, 685.0, 685.0, 685.0, 685.0, 685.0, 686.0, 686.0, 685.0, 686.0, 685.0, 685.0, 685.0, 685.0, 684.0, 684.0, 685.0, 685.0, 685.0, 685.0, 685.0, 685.0, 686.0, 685.0, 684.0, 683.0, 684.0, 683.0, 683.0, 684.0, 685.0, 684.0, 684.0, 685.0, 685.0, 685.0, 684.0, 685.0, 685.0, 685.0, 686.0, 687.0, 686.0, 686.0, 685.0, 686.0, 686.0, 685.0, 686.0, 686.0, 686.0, 686.0, 685.0, 685.0, 686.0, 686.0, 685.0, 686.0, 685.0, 685.0, 684.0, 686.0, 686.0, 686.0, 685.0, 686.0, 686.0, 687.0, 686.0, 686.0, 687.0, 686.0, 686.0, 687.0, 687.0, 686.0, 686.0, 686.0, 686.0, 686.0, 686.0, 687.0, 686.0, 685.0, 685.0, 685.0, 685.0, 685.0, 685.0, 685.0, 686.0, 686.0, 685.0, 686.0, 686.0, 686.0, 684.0, 684.0, 683.0, 683.0, 683.0, 684.0, 685.0, 685.0, 685.0, 686.0, 686.0, 685.0, 685.0, 686.0, 687.0, 686.0, 686.0, 687.0, 687.0, 687.0, 687.0, 687.0, 687.0, 688.0, 688.0, 687.0, 686.0, 686.0, 686.0, 686.0, 686.0, 686.0, 686.0, 686.0, 686.0, 686.0, 685.0, 686.0, 687.0, 686.0, 686.0, 685.0, 686.0, 687.0, 687.0, 686.0, 686.0, 686.0, 686.0, 686.0, 686.0, 686.0, 686.0, 685.0, 686.0, 686.0, 686.0, 686.0, 686.0, 685.0, 683.0, 684.0, 684.0, 685.0, 685.0, 685.0, 685.0, 685.0, 686.0, 686.0, 686.0, 686.0, 686.0, 686.0, 685.0, 686.0, 686.0, 686.0, 687.0, 686.0, 686.0, 685.0, 687.0, 687.0, 687.0, 686.0, 686.0, 686.0, 686.0, 687.0, 686.0, 686.0, 686.0, 686.0, 686.0, 686.0, 687.0, 686.0, 686.0, 687.0, 687.0, 687.0, 687.0],
