{
  "AcquisitionMatrixPE": 64,
  "AcquisitionNumber": 1,
  "AcquisitionTime": "15:50:44.765000",
  "BandwidthPerPixelPhaseEncode": 31.25,
  "BaseResolution": 64,
  "CoilCombinationMethod": "Sum of Squares",
  "CoilString": "C:HEA;HEP",
  "ConversionSoftware": "dcm2niix",
  "ConversionSoftwareVersion": "v1.0.20211006",
  "DerivedVendorReportedEchoSpacing": 0.0005,
  "DeviceSerialNumber": "35377",
  "DwellTime": 3.4e-06,
  "EchoTime": 0.03,
  "EffectiveEchoSpacing": 0.0005,
  "FlipAngle": 90,
  "ImageOrientationPatientDICOM": [0.999506, 0.0313522, -0.00211526, -0.0314108, 0.998751, -0.0388448],
  "ImageOrientationText": "Tra>Cor(-2.2)>Sag(-0.1)",
  "ImageType": [
    "ORIGINAL",
    "PRIMARY",
    "M",
    "ND",
    "MOSAIC"
],
  "ImagingFrequency": 123.256,
  "InPlanePhaseEncodingDirectionDICOM": "COL",
  "InstitutionAddress": "Azinhaga Santa Comba StreetNo,Coimbra,District,PT,3000",
  "InstitutionName": "IBILI",
  "InstitutionalDepartmentName": "Department",
  "MRAcquisitionType": "2D",
  "MagneticFieldStrength": 3,
  "Manufacturer": "Siemens",
  "ManufacturersModelName": "TrioTim",
  "MatrixCoilMode": "SENSE",
  "Modality": "MR",
  "PartialFourier": 1,
  "PatientPosition": "HFS",
  "PercentPhaseFOV": 100,
  "PercentSampling": 100,
  "PhaseEncodingDirection": "j-",
  "PhaseEncodingSteps": 64,
  "PhaseResolution": 1,
  "PixelBandwidth": 2298,
  "ProcedureStepDescription": "Unknown",
  "ProtocolName": "rtfmri_neurofeedback_AvatarNofeedback",
  "PulseSequenceDetails": "%SiemensSeq%\\ep2d_bold",
  "ReceiveCoilName": "HeadMatrix",
  "ReconMatrixPE": 64,
  "RepetitionTime": 2,
  "SAR": 0.145204,
  "ScanOptions": "FS",
  "ScanningSequence": "EP",
  "SequenceName": "*epfid2d1_64",
  "SequenceVariant": "SK",
  "SeriesDescription": "rtfmri_neurofeedback_AvatarNofeedback",
  "SeriesNumber": 10,
  "ShimSetting": [15820, 7574, 21282, 452, 155, -499, 146, -29],
  "SliceThickness": 3,
  "SliceTiming": [0, 1.0325, 0.06, 1.095, 0.12, 1.155, 0.1825, 1.215, 0.2425, 1.2775, 0.3025, 1.3375, 0.365, 1.3975, 0.425, 1.46, 0.485, 1.52, 0.5475, 1.58, 0.6075, 1.6425, 0.6675, 1.7025, 0.73, 1.7625, 0.79, 1.825, 0.85, 1.885, 0.9125, 1.945, 0.9725],
  "SoftwareVersions": "syngo MR B17",
  "SpacingBetweenSlices": 3,
  "StationName": "MRC35377",
  "TaskName": "nofeedback",
  "TotalReadoutTime": 0.0315,
  "TxRefAmp": 387.387,
  "dcmmeta_affine": [
    [-3.9980247020721436, -0.1256430745124817, -0.002684251172468066, 135.4021759033203],
    [-0.12540893256664276, 3.9950058460235596, -0.11667603999376297, -80.29463195800781],
    [-0.00846104510128498, 0.1553790122270584, 2.9977290630340576, -68.90679931640625],
    [0.0, 0.0, 0.0, 1.0]
],
  "dcmmeta_reorient_transform": [
    [0.0, -1.0, 0.0, 63.0],
    [1.0, 0.0, 0.0, 0.0],
    [0.0, 0.0, 1.0, 0.0],
    [0.0, 0.0, 0.0, 1.0]
],
  "dcmmeta_shape": [64, 64, 33, 300],
  "dcmmeta_slice_dim": 2,
  "dcmmeta_version": 0.6,
  "global": {
    "const": {
      "AccessionNumber": "RJS20150417-0556",
      "AcquisitionMatrix": [64, 0, 0, 64],
      "Allergies": "MEDALERGIESL",
      "AngioFlag": "N",
      "BitsAllocated": 16,
      "BitsStored": 12,
      "Columns": 384,
      "EchoNumbers": 1,
      "EchoTime": 30.0,
      "EchoTrainLength": 1,
      "FlipAngle": 90.0,
      "HighBit": 11,
      "ImageOrientationPatient": [0.99950615957797, 0.03135223493527, -0.0021152612742, -0.0314107686543, 0.99875144487711, -0.0388447547092],
      "ImagePositionPatient": [-747.06770648219, -830.65709023775, -32.903509421514],
      "ImageType": [
        "ORIGINAL",
        "PRIMARY",
        "M",
        "ND",
        "MOSAIC"
],
      "ImagedNucleus": "1H",
      "ImagingFrequency": 123.255655,
      "InPlanePhaseEncodingDirection": "COL",
      "MRAcquisitionType": "2D",
      "MagneticFieldStrength": 3.0,
      "Manufacturer": "SIEMENS",
      "ManufacturerModelName": "TrioTim",
      "MedicalAlerts": "MEDALERTS",
      "Modality": "MR",
      "NumberOfAverages": 1.0,
      "NumberOfPhaseEncodingSteps": 64,
      "PercentPhaseFieldOfView": 100.0,
      "PercentSampling": 100.0,
      "PerformedProcedureStepStartTime": "140949.890000",
      "PhotometricInterpretation": "MONOCHROME2",
      "PixelBandwidth": 2298.0,
      "PixelRepresentation": 0,
      "PixelSpacing": [4.0, 4.0],
      "ProtocolName": "rtfmri_neurofeedback_AvatarNofeedback",
      "RepetitionTime": 2000.0,
      "RequestAttributesSequence": [
        {
          "RequestedProcedureID": "bdce7d2d-2ec7-4d",
          "ScheduledProcedureStepDescription": "Unknown",
          "ScheduledProcedureStepID": "bdce7d2d-2ec7-4d"
        }
],
      "Rows": 384,
      "SAR": 0.1452037986012,
      "SamplesPerPixel": 1,
      "ScanOptions": "FS",
      "ScanningSequence": "EP",
      "SequenceName": "*epfid2d1_64",
      "SequenceVariant": "SK",
      "SeriesDescription": "rtfmri_neurofeedback_AvatarNofeedback",
      "SeriesNumber": 10,
      "SeriesTime": "155049.546000",
      "SliceLocation": -65.852968033003,
      "SliceThickness": 3.0,
      "SmallestImagePixelValue": 0,
      "SoftwareVersions": "syngo MR B17",
      "SpacingBetweenSlices": 3.0000000038701,
      "SpecificCharacterSet": "ISO_IR 100",
      "StudyID": "bdce7d2d-2ec7-4d",
      "StudyTime": "140949.828000",
      "TransmitCoilName": "Body",
      "VariableFlipAngleFlag": "N",
      "WindowCenterWidthExplanation": "Algo1",
      "dBdt": 0.0},
    "slices": {}
  },
  "time": {
    "samples": {
      "AcquisitionNumber": [1, 2, 3, 4, 5, 6, 7, 8, 9, 10, 11, 12, 13, 14, 15, 16, 17, 18, 19, 20, 21, 22, 23, 24, 25, 26, 27, 28, 29, 30, 31, 32, 33, 34, 35, 36, 37, 38, 39, 40, 41, 42, 43, 44, 45, 46, 47, 48, 49, 50, 51, 52, 53, 54, 55, 56, 57, 58, 59, 60, 61, 62, 63, 64, 65, 66, 67, 68, 69, 70, 71, 72, 73, 74, 75, 76, 77, 78, 79, 80, 81, 82, 83, 84, 85, 86, 87, 88, 89, 90, 91, 92, 93, 94, 95, 96, 97, 98, 99, 100, 101, 102, 103, 104, 105, 106, 107, 108, 109, 110, 111, 112, 113, 114, 115, 116, 117, 118, 119, 120, 121, 122, 123, 124, 125, 126, 127, 128, 129, 130, 131, 132, 133, 134, 135, 136, 137, 138, 139, 140, 141, 142, 143, 144, 145, 146, 147, 148, 149, 150, 151, 152, 153, 154, 155, 156, 157, 158, 159, 160, 161, 162, 163, 164, 165, 166, 167, 168, 169, 170, 171, 172, 173, 174, 175, 176, 177, 178, 179, 180, 181, 182, 183, 184, 185, 186, 187, 188, 189, 190, 191, 192, 193, 194, 195, 196, 197, 198, 199, 200, 201, 202, 203, 204, 205, 206, 207, 208, 209, 210, 211, 212, 213, 214, 215, 216, 217, 218, 219, 220, 221, 222, 223, 224, 225, 226, 227, 228, 229, 230, 231, 232, 233, 234, 235, 236, 237, 238, 239, 240, 241, 242, 243, 244, 245, 246, 247, 248, 249, 250, 251, 252, 253, 254, 255, 256, 257, 258, 259, 260, 261, 262, 263, 264, 265, 266, 267, 268, 269, 270, 271, 272, 273, 274, 275, 276, 277, 278, 279, 280, 281, 282, 283, 284, 285, 286, 287, 288, 289, 290, 291, 292, 293, 294, 295, 296, 297, 298, 299, 300],
      "AcquisitionTime": ["155044.765000", "155046.772500", "155048.780000", "155050.787500", "155052.797500", "155054.805000", "155056.812500", "155058.820000", "155100.827500", "155102.837500", "155104.845000", "155106.852500", "155108.860000", "155110.867500", "155112.877500", "155114.885000", "155116.892500", "155118.900000", "155120.910000", "155122.917500", "155124.925000", "155126.932500", "155128.940000", "155130.950000", "155132.957500", "155134.965000", "155136.972500", "155138.980000", "155140.990000", "155142.997500", "155145.005000", "155147.012500", "155149.020000", "155151.030000", "155153.037500", "155155.045000", "155157.052500", "155159.062500", "155201.070000", "155203.077500", "155205.085000", "155207.092500", "155209.102500", "155211.110000", "155213.117500", "155215.125000", "155217.132500", "155219.142500", "155221.150000", "155223.157500", "155225.165000", "155227.175000", "155229.182500", "155231.190000", "155233.197500", "155235.205000", "155237.215000", "155239.222500", "155241.230000", "155243.237500", "155245.245000", "155247.255000", "155249.262500", "155251.270000", "155253.277500", "155255.287500", "155257.295000", "155259.302500", "155301.310000", "155303.317500", "155305.327500", "155307.335000", "155309.342500", "155311.350000", "155313.357500", "155315.367500", "155317.375000", "155319.382500", "155321.390000", "155323.400000", "155325.407500", "155327.415000", "155329.422500", "155331.430000", "155333.440000", "155335.447500", "155337.455000", "155339.462500", "155341.470000", "155343.480000", "155345.487500", "155347.495000", "155349.502500", "155351.510000", "155353.520000", "155355.527500", "155357.535000", "155359.542500", "155401.552500", "155403.560000", "155405.567500", "155407.575000", "155409.582500", "155411.592500", "155413.600000", "155415.607500", "155417.615000", "155419.622500", "155421.632500", "155423.640000", "155425.647500", "155427.655000", "155429.665000", "155431.672500", "155433.680000", "155435.687500", "155437.695000", "155439.705000", "155441.712500", "155443.720000", "155445.727500", "155447.735000", "155449.745000", "155451.752500", "155453.760000", "155455.767500", "155457.777500", "155459.785000", "155501.792500", "155503.800000", "155505.807500", "155507.817500", "155509.825000", "155511.832500", "155513.840000", "155515.847500", "155517.857500", "155519.865000", "155521.872500", "155523.880000", "155525.887500", "155527.897500", "155529.905000", "155531.912500", "155533.920000", "155535.930000", "155537.937500", "155539.945000", "155541.952500", "155543.960000", "155545.970000", "155547.977500", "155549.985000", "155551.992500", "155554.000000", "155556.010000", "155558.017500", "155600.025000", "155602.032500", "155604.042500", "155606.050000", "155608.057500", "155610.065000", "155612.072500", "155614.082500", "155616.090000", "155618.097500", "155620.105000", "155622.112500", "155624.122500", "155626.130000", "155628.137500", "155630.145000", "155632.155000", "155634.162500", "155636.170000", "155638.177500", "155640.185000", "155642.195000", "155644.202500", "155646.210000", "155648.217500", "155650.225000", "155652.235000", "155654.242500", "155656.250000", "155658.257500", "155700.265000", "155702.275000", "155704.282500", "155706.290000", "155708.297500", "155710.307500", "155712.315000", "155714.322500", "155716.330000", "155718.337500", "155720.347500", "155722.355000", "155724.362500", "155726.370000", "155728.377500", "155730.387500", "155732.395000", "155734.402500", "155736.410000", "155738.420000", "155740.427500", "155742.435000", "155744.442500", "155746.450000", "155748.460000", "155750.467500", "155752.475000", "155754.482500", "155756.490000", "155758.500000", "155800.507500", "155802.515000", "155804.522500", "155806.532500", "155808.540000", "155810.547500", "155812.555000", "155814.562500", "155816.572500", "155818.580000", "155820.587500", "155822.595000", "155824.602500", "155826.612500", "155828.620000", "155830.627500", "155832.635000", "155834.642500", "155836.652500", "155838.660000", "155840.667500", "155842.675000", "155844.685000", "155846.692500", "155848.700000", "155850.707500", "155852.715000", "155854.725000", "155856.732500", "155858.740000", "155900.747500", "155902.755000", "155904.765000", "155906.772500", "155908.780000", "155910.787500", "155912.797500", "155914.805000", "155916.812500", "155918.820000", "155920.827500", "155922.837500", "155924.845000", "155926.852500", "155928.860000", "155930.867500", "155932.877500", "155934.885000", "155936.892500", "155938.900000", "155940.910000", "155942.917500", "155944.925000", "155946.932500", "155948.940000", "155950.950000", "155952.957500", "155954.965000", "155956.972500", "155958.980000", "160000.990000", "160002.997500", "160005.005000", "160007.012500", "160009.020000", "160011.030000", "160013.037500", "160015.045000", "160017.052500", "160019.062500", "160021.070000", "160023.077500", "160025.085000", "160027.092500", "160029.102500", "160031.110000", "160033.117500", "160035.125000", "160037.132500", "160039.142500", "160041.150000", "160043.157500", "160045.165000"],
      "ContentTime": ["155049.546000", "155051.531000", "155053.531000", "155055.531000", "155057.531000", "155059.531000", "155101.531000", "155103.531000", "155105.531000", "155107.531000", "155109.531000", "155111.531000", "155113.531000", "155115.531000", "155117.531000", "155119.531000", "155121.531000", "155123.531000", "155125.531000", "155127.531000", "155129.531000", "155131.531000", "155133.531000", "155135.531000", "155137.531000", "155139.531000", "155141.531000", "155143.531000", "155145.531000", "155147.531000", "155149.531000", "155151.531000", "155153.531000", "155155.531000", "155157.531000", "155159.531000", "155201.531000", "155203.531000", "155205.531000", "155207.531000", "155209.531000", "155211.531000", "155213.531000", "155215.531000", "155217.531000", "155219.531000", "155221.531000", "155223.531000", "155225.531000", "155227.531000", "155229.531000", "155231.531000", "155233.531000", "155235.531000", "155237.531000", "155239.531000", "155241.531000", "155243.531000", "155245.531000", "155247.531000", "155249.531000", "155251.531000", "155253.531000", "155255.531000", "155257.531000", "155259.531000", "155301.531000", "155303.531000", "155305.531000", "155307.531000", "155309.531000", "155311.531000", "155313.531000", "155315.531000", "155317.531000", "155319.531000", "155321.531000", "155323.531000", "155325.531000", "155327.531000", "155329.531000", "155331.531000", "155333.531000", "155335.531000", "155337.531000", "155339.531000", "155341.531000", "155343.531000", "155345.531000", "155347.531000", "155349.531000", "155351.531000", "155353.531000", "155355.531000", "155357.531000", "155359.531000", "155401.531000", "155403.531000", "155405.531000", "155407.531000", "155409.531000", "155411.531000", "155413.531000", "155415.531000", "155417.531000", "155419.531000", "155421.531000", "155423.531000", "155425.531000", "155427.531000", "155429.531000", "155431.531000", "155433.531000", "155435.531000", "155437.531000", "155439.531000", "155441.531000", "155443.531000", "155445.531000", "155447.531000", "155449.531000", "155451.531000", "155453.531000", "155455.531000", "155457.531000", "155459.531000", "155501.531000", "155503.531000", "155505.531000", "155507.531000", "155509.531000", "155511.531000", "155513.531000", "155515.531000", "155517.531000", "155519.531000", "155521.531000", "155523.531000", "155525.531000", "155527.531000", "155529.531000", "155531.531000", "155533.531000", "155535.531000", "155537.531000", "155539.531000", "155541.531000", "155543.531000", "155545.531000", "155547.531000", "155549.531000", "155551.531000", "155553.531000", "155555.531000", "155557.531000", "155559.531000", "155601.531000", "155603.531000", "155605.531000", "155607.531000", "155609.531000", "155611.531000", "155613.531000", "155615.531000", "155617.531000", "155619.531000", "155621.531000", "155623.531000", "155625.531000", "155627.531000", "155629.531000", "155631.531000", "155633.531000", "155635.531000", "155637.531000", "155639.531000", "155641.531000", "155643.531000", "155645.531000", "155647.531000", "155649.531000", "155651.531000", "155653.531000", "155655.531000", "155657.531000", "155659.531000", "155701.531000", "155703.531000", "155705.531000", "155707.531000", "155709.531000", "155711.531000", "155713.531000", "155715.531000", "155717.531000", "155719.531000", "155721.531000", "155723.531000", "155725.531000", "155727.531000", "155729.531000", "155731.531000", "155733.531000", "155735.531000", "155737.531000", "155739.531000", "155741.531000", "155743.531000", "155745.531000", "155747.531000", "155749.531000", "155751.531000", "155753.531000", "155755.531000", "155757.531000", "155759.531000", "155801.531000", "155803.531000", "155805.531000", "155807.531000", "155809.531000", "155811.531000", "155813.531000", "155815.531000", "155817.531000", "155819.531000", "155821.531000", "155823.531000", "155825.531000", "155827.531000", "155829.531000", "155831.531000", "155833.531000", "155835.531000", "155837.531000", "155839.531000", "155841.531000", "155843.531000", "155845.531000", "155847.531000", "155849.531000", "155851.531000", "155853.531000", "155855.531000", "155857.531000", "155859.531000", "155901.531000", "155903.531000", "155905.531000", "155907.531000", "155909.531000", "155911.531000", "155913.531000", "155915.531000", "155917.531000", "155919.531000", "155921.531000", "155923.531000", "155925.531000", "155927.531000", "155929.531000", "155931.531000", "155933.531000", "155935.531000", "155937.531000", "155939.531000", "155941.531000", "155943.531000", "155945.531000", "155947.531000", "155949.531000", "155951.531000", "155953.531000", "155955.531000", "155957.531000", "155959.531000", "160001.531000", "160003.531000", "160005.531000", "160007.531000", "160009.531000", "160011.531000", "160013.531000", "160015.531000", "160017.531000", "160019.531000", "160021.531000", "160023.531000", "160025.531000", "160027.531000", "160029.531000", "160031.531000", "160033.531000", "160035.531000", "160037.531000", "160039.531000", "160041.531000", "160043.531000", "160045.531000", "160047.156000"],
      "InstanceCreationTime": ["155049.546000", "155051.531000", "155053.531000", "155055.531000", "155057.531000", "155059.531000", "155101.531000", "155103.531000", "155105.531000", "155107.531000", "155109.531000", "155111.531000", "155113.531000", "155115.531000", "155117.531000", "155119.531000", "155121.531000", "155123.531000", "155125.531000", "155127.531000", "155129.531000", "155131.531000", "155133.531000", "155135.531000", "155137.531000", "155139.531000", "155141.531000", "155143.531000", "155145.531000", "155147.531000", "155149.531000", "155151.531000", "155153.531000", "155155.531000", "155157.531000", "155159.531000", "155201.531000", "155203.531000", "155205.531000", "155207.531000", "155209.531000", "155211.531000", "155213.531000", "155215.531000", "155217.531000", "155219.531000", "155221.531000", "155223.531000", "155225.531000", "155227.531000", "155229.531000", "155231.531000", "155233.531000", "155235.531000", "155237.531000", "155239.531000", "155241.531000", "155243.531000", "155245.531000", "155247.531000", "155249.531000", "155251.531000", "155253.531000", "155255.531000", "155257.531000", "155259.531000", "155301.531000", "155303.531000", "155305.531000", "155307.531000", "155309.531000", "155311.531000", "155313.531000", "155315.531000", "155317.531000", "155319.531000", "155321.531000", "155323.531000", "155325.531000", "155327.531000", "155329.531000", "155331.531000", "155333.531000", "155335.531000", "155337.531000", "155339.531000", "155341.531000", "155343.531000", "155345.531000", "155347.531000", "155349.531000", "155351.531000", "155353.531000", "155355.531000", "155357.531000", "155359.531000", "155401.531000", "155403.531000", "155405.531000", "155407.531000", "155409.531000", "155411.531000", "155413.531000", "155415.531000", "155417.531000", "155419.531000", "155421.531000", "155423.531000", "155425.531000", "155427.531000", "155429.531000", "155431.531000", "155433.531000", "155435.531000", "155437.531000", "155439.531000", "155441.531000", "155443.531000", "155445.531000", "155447.531000", "155449.531000", "155451.531000", "155453.531000", "155455.531000", "155457.531000", "155459.531000", "155501.531000", "155503.531000", "155505.531000", "155507.531000", "155509.531000", "155511.531000", "155513.531000", "155515.531000", "155517.531000", "155519.531000", "155521.531000", "155523.531000", "155525.531000", "155527.531000", "155529.531000", "155531.531000", "155533.531000", "155535.531000", "155537.531000", "155539.531000", "155541.531000", "155543.531000", "155545.531000", "155547.531000", "155549.531000", "155551.531000", "155553.531000", "155555.531000", "155557.531000", "155559.531000", "155601.531000", "155603.531000", "155605.531000", "155607.531000", "155609.531000", "155611.531000", "155613.531000", "155615.531000", "155617.531000", "155619.531000", "155621.531000", "155623.531000", "155625.531000", "155627.531000", "155629.531000", "155631.531000", "155633.531000", "155635.531000", "155637.531000", "155639.531000", "155641.531000", "155643.531000", "155645.531000", "155647.531000", "155649.531000", "155651.531000", "155653.531000", "155655.531000", "155657.531000", "155659.531000", "155701.531000", "155703.531000", "155705.531000", "155707.531000", "155709.531000", "155711.531000", "155713.531000", "155715.531000", "155717.531000", "155719.531000", "155721.531000", "155723.531000", "155725.531000", "155727.531000", "155729.531000", "155731.531000", "155733.531000", "155735.531000", "155737.531000", "155739.531000", "155741.531000", "155743.531000", "155745.531000", "155747.531000", "155749.531000", "155751.531000", "155753.531000", "155755.531000", "155757.531000", "155759.531000", "155801.531000", "155803.531000", "155805.531000", "155807.531000", "155809.531000", "155811.531000", "155813.531000", "155815.531000", "155817.531000", "155819.531000", "155821.531000", "155823.531000", "155825.531000", "155827.531000", "155829.531000", "155831.531000", "155833.531000", "155835.531000", "155837.531000", "155839.531000", "155841.531000", "155843.531000", "155845.531000", "155847.531000", "155849.531000", "155851.531000", "155853.531000", "155855.531000", "155857.531000", "155859.531000", "155901.531000", "155903.531000", "155905.531000", "155907.531000", "155909.531000", "155911.531000", "155913.531000", "155915.531000", "155917.531000", "155919.531000", "155921.531000", "155923.531000", "155925.531000", "155927.531000", "155929.531000", "155931.531000", "155933.531000", "155935.531000", "155937.531000", "155939.531000", "155941.531000", "155943.531000", "155945.531000", "155947.531000", "155949.531000", "155951.531000", "155953.531000", "155955.531000", "155957.531000", "155959.531000", "160001.531000", "160003.531000", "160005.531000", "160007.531000", "160009.531000", "160011.531000", "160013.531000", "160015.531000", "160017.531000", "160019.531000", "160021.531000", "160023.531000", "160025.531000", "160027.531000", "160029.531000", "160031.531000", "160033.531000", "160035.531000", "160037.531000", "160039.531000", "160041.531000", "160043.531000", "160045.531000", "160047.156000"],
      "InstanceNumber": [1, 2, 3, 4, 5, 6, 7, 8, 9, 10, 11, 12, 13, 14, 15, 16, 17, 18, 19, 20, 21, 22, 23, 24, 25, 26, 27, 28, 29, 30, 31, 32, 33, 34, 35, 36, 37, 38, 39, 40, 41, 42, 43, 44, 45, 46, 47, 48, 49, 50, 51, 52, 53, 54, 55, 56, 57, 58, 59, 60, 61, 62, 63, 64, 65, 66, 67, 68, 69, 70, 71, 72, 73, 74, 75, 76, 77, 78, 79, 80, 81, 82, 83, 84, 85, 86, 87, 88, 89, 90, 91, 92, 93, 94, 95, 96, 97, 98, 99, 100, 101, 102, 103, 104, 105, 106, 107, 108, 109, 110, 111, 112, 113, 114, 115, 116, 117, 118, 119, 120, 121, 122, 123, 124, 125, 126, 127, 128, 129, 130, 131, 132, 133, 134, 135, 136, 137, 138, 139, 140, 141, 142, 143, 144, 145, 146, 147, 148, 149, 150, 151, 152, 153, 154, 155, 156, 157, 158, 159, 160, 161, 162, 163, 164, 165, 166, 167, 168, 169, 170, 171, 172, 173, 174, 175, 176, 177, 178, 179, 180, 181, 182, 183, 184, 185, 186, 187, 188, 189, 190, 191, 192, 193, 194, 195, 196, 197, 198, 199, 200, 201, 202, 203, 204, 205, 206, 207, 208, 209, 210, 211, 212, 213, 214, 215, 216, 217, 218, 219, 220, 221, 222, 223, 224, 225, 226, 227, 228, 229, 230, 231, 232, 233, 234, 235, 236, 237, 238, 239, 240, 241, 242, 243, 244, 245, 246, 247, 248, 249, 250, 251, 252, 253, 254, 255, 256, 257, 258, 259, 260, 261, 262, 263, 264, 265, 266, 267, 268, 269, 270, 271, 272, 273, 274, 275, 276, 277, 278, 279, 280, 281, 282, 283, 284, 285, 286, 287, 288, 289, 290, 291, 292, 293, 294, 295, 296, 297, 298, 299, 300],
      "LargestImagePixelValue": [1591, 1538, 1539, 1547, 1525, 1544, 1527, 1522, 1539, 1538, 1526, 1528, 1536, 1538, 1549, 1518, 1522, 1540, 1536, 1536, 1533, 1519, 1521, 1535, 1535, 1529, 1551, 1523, 1519, 1539, 1538, 1522, 1528, 1546, 1525, 1527, 1544, 1532, 1523, 1525, 1524, 1537, 1519, 1511, 1514, 1545, 1536, 1522, 1532, 1539, 1523, 1531, 1536, 1540, 1517, 1531, 1521, 1510, 1541, 1523, 1519, 1529, 1527, 1525, 1533, 1524, 1515, 1539, 1525, 1522, 1531, 1526, 1531, 1498, 1532, 1529, 1523, 1531, 1519, 1518, 1516, 1540, 1510, 1528, 1511, 1513, 1524, 1511, 1494, 1542, 1521, 1517, 1528, 1514, 1520, 1525, 1523, 1528, 1510, 1512, 1522, 1513, 1525, 1533, 1532, 1524, 1523, 1525, 1505, 1520, 1516, 1516, 1530, 1519, 1514, 1520, 1512, 1515, 1520, 1522, 1518, 1490, 1523, 1524, 1513, 1527, 1512, 1502, 1509, 1521, 1508, 1528, 1512, 1507, 1506, 1515, 1509, 1511, 1497, 1505, 1506, 1505, 1508, 1502, 1498, 1503, 1509, 1514, 1501, 1510, 1501, 1501, 1510, 1509, 1498, 1510, 1508, 1509, 1504, 1500, 1485, 1498, 1508, 1500, 1492, 1513, 1495, 1504, 1499, 1483, 1490, 1513, 1504, 1512, 1512, 1500, 1490, 1503, 1497, 1491, 1499, 1495, 1482, 1492, 1503, 1495, 1482, 1492, 1506, 1493, 1489, 1491, 1495, 1499, 1492, 1500, 1493, 1496, 1491, 1500, 1495, 1488, 1491, 1488, 1491, 1496, 1490, 1497, 1497, 1496, 1491, 1504, 1498, 1501, 1504, 1491, 1488, 1498, 1505, 1501, 1501, 1501, 1486, 1501, 1515, 1504, 1508, 1510, 1506, 1514, 1498, 1507, 1518, 1499, 1509, 1504, 1504, 1505, 1506, 1508, 1494, 1507, 1519, 1497, 1503, 1510, 1524, 1502, 1513, 1513, 1516, 1504, 1494, 1521, 1517, 1520, 1511, 1513, 1508, 1510, 1496, 1506, 1514, 1507, 1511, 1510, 1507, 1508, 1518, 1507, 1509, 1516, 1512, 1520, 1524, 1525, 1515, 1517, 1515, 1514, 1525, 1518, 1499, 1526, 1516, 1517, 1517, 1510, 1516, 1514, 1513, 1523, 1528, 1523, 1509, 1510, 1514, 1524, 1524, 1531],
      "WindowCenter": [645.0, 644.0, 644.0, 644.0, 643.0, 643.0, 643.0, 643.0, 643.0, 643.0, 643.0, 643.0, 644.0, 644.0, 645.0, 645.0, 644.0, 645.0, 644.0, 644.0, 644.0, 644.0, 644.0, 644.0, 644.0, 645.0, 645.0, 645.0, 644.0, 644.0, 645.0, 645.0, 644.0, 644.0, 644.0, 645.0, 645.0, 645.0, 645.0, 645.0, 644.0, 644.0, 644.0, 643.0, 644.0, 644.0, 645.0, 644.0, 644.0, 645.0, 644.0, 645.0, 645.0, 644.0, 644.0, 644.0, 645.0, 645.0, 645.0, 644.0, 645.0, 645.0, 645.0, 644.0, 644.0, 644.0, 644.0, 645.0, 644.0, 644.0, 644.0, 644.0, 645.0, 644.0, 645.0, 644.0, 644.0, 644.0, 644.0, 645.0, 645.0, 645.0, 644.0, 645.0, 645.0, 645.0, 645.0, 646.0, 645.0, 645.0, 645.0, 645.0, 644.0, 645.0, 645.0, 645.0, 645.0, 645.0, 646.0, 645.0, 645.0, 645.0, 645.0, 645.0, 646.0, 646.0, 645.0, 645.0, 645.0, 646.0, 646.0, 646.0, 646.0, 645.0, 645.0, 645.0, 645.0, 645.0, 645.0, 645.0, 644.0, 644.0, 645.0, 645.0, 644.0, 644.0, 644.0, 644.0, 645.0, 645.0, 644.0, 645.0, 645.0, 644.0, 645.0, 645.0, 644.0, 644.0, 644.0, 644.0, 644.0, 644.0, 644.0, 644.0, 644.0, 645.0, 645.0, 645.0, 645.0, 645.0, 644.0, 645.0, 645.0, 645.0, 644.0, 645.0, 644.0, 644.0, 645.0, 645.0, 644.0, 645.0, 645.0, 645.0, 644.0, 645.0, 645.0, 645.0, 645.0, 644.0, 646.0, 645.0, 645.0, 645.0, 645.0, 644.0, 644.0, 644.0, 644.0, 644.0, 645.0, 645.0, 646.0, 646.0, 645.0, 645.0, 644.0, 644.0, 644.0, 645.0, 644.0, 645.0, 645.0, 645.0, 646.0, 646.0, 646.0, 645.0, 645.0, 646.0, 645.0, 645.0, 646.0, 646.0, 645.0, 645.0, 645.0, 645.0, 645.0, 645.0, 645.0, 645.0, 645.0, 645.0, 645.0, 645.0, 645.0, 645.0, 645.0, 645.0, 645.0, 645.0, 645.0, 644.0, 645.0, 644.0, 645.0, 645.0, 645.0, 645.0, 645.0, 645.0, 645.0, 645.0, 646.0, 645.0, 645.0, 646.0, 645.0, 645.0, 645.0, 645.0, 646.0, 645.0, 645.0, 646.0, 646.0, 645.0, 646.0, 645.0, 646.0, 646.0, 646.0, 646.0, 647.0, 646.0, 645.0, 645.0, 645.0, 645.0, 645.0, 645.0, 645.0, 645.0, 646.0, 646.0, 646.0, 646.0, 645.0, 644.0, 644.0, 644.0, 644.0, 644.0, 644.0, 644.0, 645.0, 645.0, 645.0, 644.0, 645.0, 645.0, 645.0, 645.0, 645.0, 645.0, 646.0, 646.0, 646.0, 646.0, 646.0, 646.0, 646.0, 646.0, 646.0, 646.0, 646.0, 646.0, 646.0, 646.0],
