{
  "AcquisitionMatrixPE": 64,
  "AcquisitionNumber": 1,
  "AcquisitionTime": "15:57:3.757500",
  "BandwidthPerPixelPhaseEncode": 31.25,
  "BaseResolution": 64,
  "CoilCombinationMethod": "Sum of Squares",
  "CoilString": "C:HEA;HEP",
  "ConversionSoftware": "dcm2niix",
  "ConversionSoftwareVersion": "v1.0.20211006",
  "DerivedVendorReportedEchoSpacing": 0.0005,
  "DeviceSerialNumber": "35377",
  "DwellTime": 3.4e-06,
  "EchoTime": 0.03,
  "EffectiveEchoSpacing": 0.0005,
  "FlipAngle": 90,
  "ImageOrientationPatientDICOM": [0.999361, 0.000394346, 0.0357287, -0.0034885, 0.996239, 0.0865805],
  "ImageOrientationText": "Tra>Cor(5.0)>Sag(2.0)",
  "ImageType": [
    "ORIGINAL",
    "PRIMARY",
    "M",
    "ND",
    "MOSAIC"
],
  "ImagingFrequency": 123.256,
  "InPlanePhaseEncodingDirectionDICOM": "COL",
  "InstitutionAddress": "Azinhaga Santa Comba StreetNo,Coimbra,District,PT,3000",
  "InstitutionName": "IBILI",
  "InstitutionalDepartmentName": "Department",
  "MRAcquisitionType": "2D",
  "MagneticFieldStrength": 3,
  "Manufacturer": "Siemens",
  "ManufacturersModelName": "TrioTim",
  "MatrixCoilMode": "SENSE",
  "Modality": "MR",
  "PartialFourier": 1,
  "PatientPosition": "HFS",
  "PercentPhaseFOV": 100,
  "PercentSampling": 100,
  "PhaseEncodingDirection": "j-",
  "PhaseEncodingSteps": 64,
  "PhaseResolution": 1,
  "PixelBandwidth": 2298,
  "ProcedureStepDescription": "Unknown",
  "ProtocolName": "rtfmri_neurofeedback_AvatarNofeedback",
  "PulseSequenceDetails": "%SiemensSeq%\\ep2d_bold",
  "ReceiveCoilName": "HeadMatrix",
  "ReconMatrixPE": 64,
  "RepetitionTime": 2,
  "SAR": 0.183853,
  "ScanOptions": "FS",
  "ScanningSequence": "EP",
  "SequenceName": "*epfid2d1_64",
  "SequenceVariant": "SK",
  "SeriesDescription": "rtfmri_neurofeedback_AvatarNofeedback",
  "SeriesNumber": 7,
  "ShimSetting": [15856, 7507, 21311, 469, 413, -718, 219, 54],
  "SliceThickness": 3,
  "SliceTiming": [0, 1.035, 0.06, 1.095, 0.1225, 1.155, 0.1825, 1.2175, 0.2425, 1.2775, 0.305, 1.3375, 0.365, 1.4, 0.425, 1.46, 0.4875, 1.52, 0.5475, 1.5825, 0.6075, 1.6425, 0.67, 1.7025, 0.73, 1.765, 0.79, 1.825, 0.8525, 1.885, 0.9125, 1.9475, 0.9725],
  "SoftwareVersions": "syngo MR B17",
  "SpacingBetweenSlices": 3,
  "StationName": "MRC35377",
  "TaskName": "nofeedback",
  "TotalReadoutTime": 0.0315,
  "TxRefAmp": 384.068,
  "dcmmeta_affine": [
    [-3.997445821762085, -0.013953989371657372, 0.1066804900765419, 128.3829803466797],
    [-0.0015773845370858908, 3.984955072402954, 0.2599494755268097, -93.36419677734375],
    [0.1429147571325302, -0.34632188081741333, 2.986811876296997, -53.65754699707031],
    [0.0, 0.0, 0.0, 1.0]
],
  "dcmmeta_reorient_transform": [
    [0.0, -1.0, 0.0, 63.0],
    [1.0, 0.0, 0.0, 0.0],
    [0.0, 0.0, 1.0, 0.0],
    [0.0, 0.0, 0.0, 1.0]
],
  "dcmmeta_shape": [64, 64, 33, 300],
  "dcmmeta_slice_dim": 2,
  "dcmmeta_version": 0.6,
  "global": {
    "const": {
      "AccessionNumber": "AMS20150402-0241",
      "AcquisitionMatrix": [64, 0, 0, 64],
      "Allergies": "MEDALERGIESL",
      "AngioFlag": "N",
      "BitsAllocated": 16,
      "BitsStored": 12,
      "Columns": 384,
      "EchoNumbers": 1,
      "EchoTime": 30.0,
      "EchoTrainLength": 1,
      "FlipAngle": 90.0,
      "HighBit": 11,
      "ImageOrientationPatient": [0.99936144869593, 0.00039434612034, 0.03572869087313, -0.0034884973087, 0.99623875283767, 0.08658046968555],
      "ImagePositionPatient": [-764.86256306844, -795.5331546311, -153.75368677392],
      "ImageType": [
        "ORIGINAL",
        "PRIMARY",
        "M",
        "ND",
        "MOSAIC"
],
      "ImagedNucleus": "1H",
      "ImagingFrequency": 123.255642,
      "InPlanePhaseEncodingDirection": "COL",
      "MRAcquisitionType": "2D",
      "MagneticFieldStrength": 3.0,
      "Manufacturer": "SIEMENS",
      "ManufacturerModelName": "TrioTim",
      "MedicalAlerts": "MEDALERTS",
      "Modality": "MR",
      "NumberOfAverages": 1.0,
      "NumberOfPhaseEncodingSteps": 64,
      "PercentPhaseFieldOfView": 100.0,
      "PercentSampling": 100.0,
      "PerformedProcedureStepStartTime": "151454.015000",
      "PhotometricInterpretation": "MONOCHROME2",
      "PixelBandwidth": 2298.0,
      "PixelRepresentation": 0,
      "PixelSpacing": [4.0, 4.0],
      "ProtocolName": "rtfmri_neurofeedback_AvatarNofeedback",
      "RepetitionTime": 2000.0,
      "RequestAttributesSequence": [
        {
          "RequestedProcedureID": "c4a23d8c-f825-4b",
          "ScheduledProcedureStepDescription": "Unknown",
          "ScheduledProcedureStepID": "c4a23d8c-f825-4b"
        }
],
      "Rows": 384,
      "SAR": 0.18385253339636,
      "SamplesPerPixel": 1,
      "ScanOptions": "FS",
      "ScanningSequence": "EP",
      "SequenceName": "*epfid2d1_64",
      "SequenceVariant": "SK",
      "SeriesDescription": "rtfmri_neurofeedback_AvatarNofeedback",
      "SeriesNumber": 7,
      "SeriesTime": "155706.921000",
      "SliceLocation": -56.946337248496,
      "SliceThickness": 3.0,
      "SmallestImagePixelValue": 0,
      "SoftwareVersions": "syngo MR B17",
      "SpacingBetweenSlices": 2.9999999381853,
      "SpecificCharacterSet": "ISO_IR 100",
      "StudyID": "c4a23d8c-f825-4b",
      "StudyTime": "151453.953000",
      "TransmitCoilName": "Body",
      "VariableFlipAngleFlag": "N",
      "WindowCenterWidthExplanation": "Algo1",
      "dBdt": 0.0},
    "slices": {}
  },
  "time": {
    "samples": {
      "AcquisitionNumber": [1, 2, 3, 4, 5, 6, 7, 8, 9, 10, 11, 12, 13, 14, 15, 16, 17, 18, 19, 20, 21, 22, 23, 24, 25, 26, 27, 28, 29, 30, 31, 32, 33, 34, 35, 36, 37, 38, 39, 40, 41, 42, 43, 44, 45, 46, 47, 48, 49, 50, 51, 52, 53, 54, 55, 56, 57, 58, 59, 60, 61, 62, 63, 64, 65, 66, 67, 68, 69, 70, 71, 72, 73, 74, 75, 76, 77, 78, 79, 80, 81, 82, 83, 84, 85, 86, 87, 88, 89, 90, 91, 92, 93, 94, 95, 96, 97, 98, 99, 100, 101, 102, 103, 104, 105, 106, 107, 108, 109, 110, 111, 112, 113, 114, 115, 116, 117, 118, 119, 120, 121, 122, 123, 124, 125, 126, 127, 128, 129, 130, 131, 132, 133, 134, 135, 136, 137, 138, 139, 140, 141, 142, 143, 144, 145, 146, 147, 148, 149, 150, 151, 152, 153, 154, 155, 156, 157, 158, 159, 160, 161, 162, 163, 164, 165, 166, 167, 168, 169, 170, 171, 172, 173, 174, 175, 176, 177, 178, 179, 180, 181, 182, 183, 184, 185, 186, 187, 188, 189, 190, 191, 192, 193, 194, 195, 196, 197, 198, 199, 200, 201, 202, 203, 204, 205, 206, 207, 208, 209, 210, 211, 212, 213, 214, 215, 216, 217, 218, 219, 220, 221, 222, 223, 224, 225, 226, 227, 228, 229, 230, 231, 232, 233, 234, 235, 236, 237, 238, 239, 240, 241, 242, 243, 244, 245, 246, 247, 248, 249, 250, 251, 252, 253, 254, 255, 256, 257, 258, 259, 260, 261, 262, 263, 264, 265, 266, 267, 268, 269, 270, 271, 272, 273, 274, 275, 276, 277, 278, 279, 280, 281, 282, 283, 284, 285, 286, 287, 288, 289, 290, 291, 292, 293, 294, 295, 296, 297, 298, 299, 300],
      "AcquisitionTime": ["155703.757500", "155705.765000", "155707.772500", "155709.782500", "155711.790000", "155713.797500", "155715.805000", "155717.812500", "155719.822500", "155721.830000", "155723.837500", "155725.845000", "155727.852500", "155729.862500", "155731.870000", "155733.877500", "155735.885000", "155737.895000", "155739.902500", "155741.910000", "155743.917500", "155745.925000", "155747.935000", "155749.942500", "155751.950000", "155753.957500", "155755.965000", "155757.975000", "155759.982500", "155801.990000", "155803.997500", "155806.005000", "155808.015000", "155810.022500", "155812.030000", "155814.037500", "155816.047500", "155818.055000", "155820.062500", "155822.070000", "155824.077500", "155826.087500", "155828.095000", "155830.102500", "155832.110000", "155834.117500", "155836.127500", "155838.135000", "155840.142500", "155842.150000", "155844.160000", "155846.167500", "155848.175000", "155850.182500", "155852.190000", "155854.200000", "155856.207500", "155858.215000", "155900.222500", "155902.230000", "155904.240000", "155906.247500", "155908.255000", "155910.262500", "155912.272500", "155914.280000", "155916.287500", "155918.295000", "155920.302500", "155922.312500", "155924.320000", "155926.327500", "155928.335000", "155930.342500", "155932.352500", "155934.360000", "155936.367500", "155938.375000", "155940.385000", "155942.392500", "155944.400000", "155946.407500", "155948.415000", "155950.425000", "155952.432500", "155954.440000", "155956.447500", "155958.455000", "160000.465000", "160002.472500", "160004.480000", "160006.487500", "160008.495000", "160010.505000", "160012.512500", "160014.520000", "160016.527500", "160018.537500", "160020.545000", "160022.552500", "160024.560000", "160026.567500", "160028.577500", "160030.585000", "160032.592500", "160034.600000", "160036.607500", "160038.617500", "160040.625000", "160042.632500", "160044.640000", "160046.650000", "160048.657500", "160050.665000", "160052.672500", "160054.680000", "160056.690000", "160058.697500", "160100.705000", "160102.712500", "160104.720000", "160106.730000", "160108.737500", "160110.745000", "160112.752500", "160114.762500", "160116.770000", "160118.777500", "160120.785000", "160122.792500", "160124.802500", "160126.810000", "160128.817500", "160130.825000", "160132.832500", "160134.842500", "160136.850000", "160138.857500", "160140.865000", "160142.872500", "160144.882500", "160146.890000", "160148.897500", "160150.905000", "160152.915000", "160154.922500", "160156.930000", "160158.937500", "160200.945000", "160202.955000", "160204.962500", "160206.970000", "160208.977500", "160210.985000", "160212.995000", "160215.002500", "160217.010000", "160219.017500", "160221.027500", "160223.035000", "160225.042500", "160227.050000", "160229.057500", "160231.067500", "160233.075000", "160235.082500", "160237.090000", "160239.097500", "160241.107500", "160243.115000", "160245.122500", "160247.130000", "160249.140000", "160251.147500", "160253.155000", "160255.162500", "160257.170000", "160259.180000", "160301.187500", "160303.195000", "160305.202500", "160307.210000", "160309.220000", "160311.227500", "160313.235000", "160315.242500", "160317.250000", "160319.260000", "160321.267500", "160323.275000", "160325.282500", "160327.292500", "160329.300000", "160331.307500", "160333.315000", "160335.322500", "160337.332500", "160339.340000", "160341.347500", "160343.355000", "160345.362500", "160347.372500", "160349.380000", "160351.387500", "160353.395000", "160355.405000", "160357.412500", "160359.420000", "160401.427500", "160403.435000", "160405.445000", "160407.452500", "160409.460000", "160411.467500", "160413.475000", "160415.485000", "160417.492500", "160419.500000", "160421.507500", "160423.517500", "160425.525000", "160427.532500", "160429.540000", "160431.547500", "160433.557500", "160435.565000", "160437.572500", "160439.580000", "160441.587500", "160443.597500", "160445.605000", "160447.612500", "160449.620000", "160451.627500", "160453.637500", "160455.645000", "160457.652500", "160459.660000", "160501.670000", "160503.677500", "160505.685000", "160507.692500", "160509.700000", "160511.710000", "160513.717500", "160515.725000", "160517.732500", "160519.740000", "160521.750000", "160523.757500", "160525.765000", "160527.772500", "160529.782500", "160531.790000", "160533.797500", "160535.805000", "160537.812500", "160539.822500", "160541.830000", "160543.837500", "160545.845000", "160547.852500", "160549.862500", "160551.870000", "160553.877500", "160555.885000", "160557.895000", "160559.902500", "160601.910000", "160603.917500", "160605.925000", "160607.935000", "160609.942500", "160611.950000", "160613.957500", "160615.965000", "160617.975000", "160619.982500", "160621.990000", "160623.997500", "160626.005000", "160628.015000", "160630.022500", "160632.030000", "160634.037500", "160636.047500", "160638.055000", "160640.062500", "160642.070000", "160644.077500", "160646.087500", "160648.095000", "160650.102500", "160652.110000", "160654.117500", "160656.127500", "160658.135000", "160700.142500", "160702.150000", "160704.160000"],
      "ContentTime": ["155706.937000", "155708.921000", "155710.921000", "155712.921000", "155714.921000", "155716.921000", "155718.921000", "155720.921000", "155722.921000", "155724.921000", "155726.921000", "155728.921000", "155730.921000", "155732.921000", "155734.921000", "155736.921000", "155738.921000", "155740.921000", "155742.921000", "155744.921000", "155746.921000", "155748.921000", "155750.921000", "155752.921000", "155754.921000", "155756.921000", "155758.921000", "155800.921000", "155802.921000", "155804.921000", "155806.921000", "155808.921000", "155810.921000", "155812.921000", "155814.921000", "155816.921000", "155818.921000", "155820.921000", "155822.921000", "155824.921000", "155826.921000", "155828.921000", "155830.921000", "155832.921000", "155834.921000", "155836.921000", "155838.921000", "155840.921000", "155842.921000", "155844.921000", "155846.921000", "155848.921000", "155850.921000", "155852.921000", "155854.921000", "155856.921000", "155858.921000", "155900.921000", "155902.921000", "155904.921000", "155906.921000", "155908.921000", "155910.921000", "155912.921000", "155914.921000", "155916.921000", "155918.921000", "155920.921000", "155922.921000", "155924.921000", "155926.921000", "155928.921000", "155930.921000", "155932.921000", "155934.921000", "155936.921000", "155938.921000", "155940.921000", "155942.921000", "155944.921000", "155946.921000", "155948.921000", "155950.921000", "155952.921000", "155954.921000", "155956.921000", "155958.921000", "160000.921000", "160002.921000", "160004.921000", "160006.921000", "160008.921000", "160010.921000", "160012.921000", "160014.921000", "160016.921000", "160018.921000", "160020.921000", "160022.921000", "160024.921000", "160026.921000", "160028.921000", "160030.921000", "160032.921000", "160034.921000", "160036.921000", "160038.921000", "160040.921000", "160042.921000", "160044.921000", "160046.921000", "160048.921000", "160050.921000", "160052.921000", "160054.921000", "160056.921000", "160058.921000", "160100.921000", "160102.921000", "160104.921000", "160106.921000", "160108.921000", "160110.921000", "160112.921000", "160114.921000", "160116.921000", "160118.921000", "160120.921000", "160122.921000", "160124.921000", "160126.921000", "160128.921000", "160130.921000", "160132.921000", "160134.921000", "160136.921000", "160138.921000", "160140.921000", "160142.921000", "160144.921000", "160146.921000", "160148.921000", "160150.921000", "160152.921000", "160154.921000", "160156.921000", "160158.921000", "160200.921000", "160202.921000", "160204.921000", "160206.921000", "160208.921000", "160210.921000", "160212.921000", "160214.921000", "160216.921000", "160218.921000", "160220.921000", "160222.921000", "160224.921000", "160226.921000", "160228.921000", "160230.921000", "160232.921000", "160234.921000", "160236.921000", "160238.921000", "160240.921000", "160242.921000", "160244.921000", "160246.921000", "160248.921000", "160250.921000", "160252.921000", "160254.921000", "160256.921000", "160258.921000", "160300.921000", "160302.921000", "160304.921000", "160306.921000", "160308.921000", "160310.921000", "160312.921000", "160314.921000", "160316.921000", "160318.921000", "160320.921000", "160322.921000", "160324.921000", "160326.921000", "160328.921000", "160330.921000", "160332.921000", "160334.921000", "160336.921000", "160338.921000", "160340.921000", "160342.921000", "160344.921000", "160346.921000", "160348.921000", "160350.921000", "160352.921000", "160354.921000", "160356.921000", "160358.921000", "160400.921000", "160402.921000", "160404.921000", "160406.921000", "160408.921000", "160410.921000", "160412.921000", "160414.921000", "160416.921000", "160418.921000", "160420.921000", "160422.921000", "160424.921000", "160426.921000", "160428.921000", "160430.921000", "160432.921000", "160434.921000", "160436.921000", "160438.921000", "160440.921000", "160442.921000", "160444.921000", "160446.921000", "160448.921000", "160450.921000", "160452.921000", "160454.921000", "160456.921000", "160458.921000", "160500.921000", "160502.921000", "160504.921000", "160506.921000", "160508.921000", "160510.921000", "160512.921000", "160514.921000", "160516.921000", "160518.921000", "160520.921000", "160522.921000", "160524.921000", "160526.921000", "160528.921000", "160530.921000", "160532.921000", "160534.921000", "160536.921000", "160538.921000", "160540.921000", "160542.921000", "160544.921000", "160546.921000", "160548.921000", "160550.921000", "160552.921000", "160554.921000", "160556.921000", "160558.921000", "160600.921000", "160602.921000", "160604.921000", "160606.921000", "160608.921000", "160610.921000", "160612.921000", "160614.921000", "160616.921000", "160618.921000", "160620.921000", "160622.921000", "160624.921000", "160626.921000", "160628.921000", "160630.921000", "160632.921000", "160634.921000", "160636.921000", "160638.921000", "160640.921000", "160642.921000", "160644.921000", "160646.921000", "160648.921000", "160650.921000", "160652.921000", "160654.921000", "160656.921000", "160658.921000", "160700.921000", "160702.921000", "160704.531000"],
      "InstanceCreationTime": ["155706.937000", "155708.921000", "155710.921000", "155712.921000", "155714.921000", "155716.921000", "155718.921000", "155720.921000", "155722.921000", "155724.921000", "155726.921000", "155728.921000", "155730.921000", "155732.921000", "155734.921000", "155736.921000", "155738.921000", "155740.921000", "155742.921000", "155744.921000", "155746.921000", "155748.921000", "155750.921000", "155752.921000", "155754.921000", "155756.921000", "155758.921000", "155800.921000", "155802.921000", "155804.921000", "155806.921000", "155808.921000", "155810.921000", "155812.921000", "155814.921000", "155816.921000", "155818.921000", "155820.921000", "155822.921000", "155824.921000", "155826.921000", "155828.921000", "155830.921000", "155832.921000", "155834.921000", "155836.921000", "155838.921000", "155840.921000", "155842.921000", "155844.921000", "155846.921000", "155848.921000", "155850.921000", "155852.921000", "155854.921000", "155856.921000", "155858.921000", "155900.921000", "155902.921000", "155904.921000", "155906.921000", "155908.921000", "155910.921000", "155912.921000", "155914.921000", "155916.921000", "155918.921000", "155920.921000", "155922.921000", "155924.921000", "155926.921000", "155928.921000", "155930.921000", "155932.921000", "155934.921000", "155936.921000", "155938.921000", "155940.921000", "155942.921000", "155944.921000", "155946.921000", "155948.921000", "155950.921000", "155952.921000", "155954.921000", "155956.921000", "155958.921000", "160000.921000", "160002.921000", "160004.921000", "160006.921000", "160008.921000", "160010.921000", "160012.921000", "160014.921000", "160016.921000", "160018.921000", "160020.921000", "160022.921000", "160024.921000", "160026.921000", "160028.921000", "160030.921000", "160032.921000", "160034.921000", "160036.921000", "160038.921000", "160040.921000", "160042.921000", "160044.921000", "160046.921000", "160048.921000", "160050.921000", "160052.921000", "160054.921000", "160056.921000", "160058.921000", "160100.921000", "160102.921000", "160104.921000", "160106.921000", "160108.921000", "160110.921000", "160112.921000", "160114.921000", "160116.921000", "160118.921000", "160120.921000", "160122.921000", "160124.921000", "160126.921000", "160128.921000", "160130.921000", "160132.921000", "160134.921000", "160136.921000", "160138.921000", "160140.921000", "160142.921000", "160144.921000", "160146.921000", "160148.921000", "160150.921000", "160152.921000", "160154.921000", "160156.921000", "160158.921000", "160200.921000", "160202.921000", "160204.921000", "160206.921000", "160208.921000", "160210.921000", "160212.921000", "160214.921000", "160216.921000", "160218.921000", "160220.921000", "160222.921000", "160224.921000", "160226.921000", "160228.921000", "160230.921000", "160232.921000", "160234.921000", "160236.921000", "160238.921000", "160240.921000", "160242.921000", "160244.921000", "160246.921000", "160248.921000", "160250.921000", "160252.921000", "160254.921000", "160256.921000", "160258.921000", "160300.921000", "160302.921000", "160304.921000", "160306.921000", "160308.921000", "160310.921000", "160312.921000", "160314.921000", "160316.921000", "160318.921000", "160320.921000", "160322.921000", "160324.921000", "160326.921000", "160328.921000", "160330.921000", "160332.921000", "160334.921000", "160336.921000", "160338.921000", "160340.921000", "160342.921000", "160344.921000", "160346.921000", "160348.921000", "160350.921000", "160352.921000", "160354.921000", "160356.921000", "160358.921000", "160400.921000", "160402.921000", "160404.921000", "160406.921000", "160408.921000", "160410.921000", "160412.921000", "160414.921000", "160416.921000", "160418.921000", "160420.921000", "160422.921000", "160424.921000", "160426.921000", "160428.921000", "160430.921000", "160432.921000", "160434.921000", "160436.921000", "160438.921000", "160440.921000", "160442.921000", "160444.921000", "160446.921000", "160448.921000", "160450.921000", "160452.921000", "160454.921000", "160456.921000", "160458.921000", "160500.921000", "160502.921000", "160504.921000", "160506.921000", "160508.921000", "160510.921000", "160512.921000", "160514.921000", "160516.921000", "160518.921000", "160520.921000", "160522.921000", "160524.921000", "160526.921000", "160528.921000", "160530.921000", "160532.921000", "160534.921000", "160536.921000", "160538.921000", "160540.921000", "160542.921000", "160544.921000", "160546.921000", "160548.921000", "160550.921000", "160552.921000", "160554.921000", "160556.921000", "160558.921000", "160600.921000", "160602.921000", "160604.921000", "160606.921000", "160608.921000", "160610.921000", "160612.921000", "160614.921000", "160616.921000", "160618.921000", "160620.921000", "160622.921000", "160624.921000", "160626.921000", "160628.921000", "160630.921000", "160632.921000", "160634.921000", "160636.921000", "160638.921000", "160640.921000", "160642.921000", "160644.921000", "160646.921000", "160648.921000", "160650.921000", "160652.921000", "160654.921000", "160656.921000", "160658.921000", "160700.921000", "160702.921000", "160704.531000"],
      "InstanceNumber": [1, 2, 3, 4, 5, 6, 7, 8, 9, 10, 11, 12, 13, 14, 15, 16, 17, 18, 19, 20, 21, 22, 23, 24, 25, 26, 27, 28, 29, 30, 31, 32, 33, 34, 35, 36, 37, 38, 39, 40, 41, 42, 43, 44, 45, 46, 47, 48, 49, 50, 51, 52, 53, 54, 55, 56, 57, 58, 59, 60, 61, 62, 63, 64, 65, 66, 67, 68, 69, 70, 71, 72, 73, 74, 75, 76, 77, 78, 79, 80, 81, 82, 83, 84, 85, 86, 87, 88, 89, 90, 91, 92, 93, 94, 95, 96, 97, 98, 99, 100, 101, 102, 103, 104, 105, 106, 107, 108, 109, 110, 111, 112, 113, 114, 115, 116, 117, 118, 119, 120, 121, 122, 123, 124, 125, 126, 127, 128, 129, 130, 131, 132, 133, 134, 135, 136, 137, 138, 139, 140, 141, 142, 143, 144, 145, 146, 147, 148, 149, 150, 151, 152, 153, 154, 155, 156, 157, 158, 159, 160, 161, 162, 163, 164, 165, 166, 167, 168, 169, 170, 171, 172, 173, 174, 175, 176, 177, 178, 179, 180, 181, 182, 183, 184, 185, 186, 187, 188, 189, 190, 191, 192, 193, 194, 195, 196, 197, 198, 199, 200, 201, 202, 203, 204, 205, 206, 207, 208, 209, 210, 211, 212, 213, 214, 215, 216, 217, 218, 219, 220, 221, 222, 223, 224, 225, 226, 227, 228, 229, 230, 231, 232, 233, 234, 235, 236, 237, 238, 239, 240, 241, 242, 243, 244, 245, 246, 247, 248, 249, 250, 251, 252, 253, 254, 255, 256, 257, 258, 259, 260, 261, 262, 263, 264, 265, 266, 267, 268, 269, 270, 271, 272, 273, 274, 275, 276, 277, 278, 279, 280, 281, 282, 283, 284, 285, 286, 287, 288, 289, 290, 291, 292, 293, 294, 295, 296, 297, 298, 299, 300],
      "LargestImagePixelValue": [1669, 1579, 1577, 1563, 1563, 1527, 1514, 1550, 1582, 1553, 1549, 1549, 1546, 1536, 1554, 1546, 1539, 1550, 1523, 1536, 1563, 1529, 1570, 1539, 1535, 1485, 1644, 1554, 1538, 1552, 1542, 1542, 1540, 1551, 1557, 1546, 1540, 1524, 1549, 1551, 1541, 1554, 1558, 1532, 1542, 1531, 1539, 1555, 1552, 1562, 1558, 1549, 1541, 1531, 1547, 1543, 1541, 1554, 1555, 1548, 1550, 1549, 1521, 1555, 1578, 1543, 1550, 1571, 1545, 1535, 1541, 1570, 1552, 1562, 1544, 1548, 1529, 1553, 1559, 1553, 1542, 1553, 1540, 1542, 1529, 1533, 1554, 1568, 1565, 1555, 1714, 1530, 1547, 1542, 1553, 1561, 1555, 1546, 1545, 1547, 1538, 1554, 1550, 1544, 1550, 1543, 1543, 1545, 1548, 1560, 1554, 1541, 1552, 1556, 1528, 1542, 1542, 1553, 1562, 1550, 1563, 1519, 1510, 1521, 1505, 1518, 1514, 1509, 1536, 1526, 1548, 1560, 1514, 1500, 1519, 1512, 1535, 1554, 1566, 1541, 1539, 1531, 1524, 1543, 1536, 1524, 1563, 1548, 1559, 1551, 1553, 1546, 1531, 1553, 1554, 1550, 1567, 1555, 1553, 1535, 1567, 1568, 1547, 1565, 1559, 1566, 1553, 1563, 1562, 1507, 1585, 1538, 1553, 1523, 1553, 1546, 1530, 1546, 1558, 1543, 1575, 1527, 1531, 1533, 1528, 1535, 1531, 1541, 1543, 1523, 1566, 1532, 1566, 1527, 1553, 1541, 1550, 1540, 1551, 1516, 1523, 1541, 1547, 1534, 1527, 1564, 1540, 1539, 1538, 1550, 1553, 1553, 1543, 1561, 1566, 1559, 1441, 1549, 1534, 1590, 1567, 1561, 1561, 1582, 1561, 1582, 1568, 1573, 1579, 1572, 1580, 1577, 1591, 1583, 1548, 1571, 1615, 1562, 1561, 1570, 1560, 1546, 1569, 1575, 1564, 1579, 1593, 1555, 1576, 1571, 1596, 1563, 1578, 1574, 1585, 1591, 1568, 1598, 1590, 1567, 1577, 1555, 1567, 1584, 1585, 1584, 1574, 1567, 1573, 1580, 1567, 1580, 1586, 1584, 1567, 1574, 1558, 1573, 1571, 1558, 1585, 1569, 1581, 1592, 1590, 1580, 1576, 1572, 1582, 1577, 1595, 1574, 1559, 1559, 1567, 1559, 1582, 1575, 1573, 1575],
      "WindowCenter": [653.0, 651.0, 651.0, 651.0, 652.0, 650.0, 652.0, 652.0, 652.0, 650.0, 650.0, 651.0, 650.0, 651.0, 652.0, 652.0, 652.0, 653.0, 651.0, 651.0, 652.0, 651.0, 652.0, 651.0, 652.0, 651.0, 653.0, 652.0, 651.0, 651.0, 651.0, 651.0, 651.0, 653.0, 653.0, 652.0, 651.0, 650.0, 652.0, 652.0, 652.0, 652.0, 651.0, 650.0, 651.0, 651.0, 651.0, 651.0, 651.0, 651.0, 650.0, 650.0, 651.0, 651.0, 651.0, 652.0, 652.0, 652.0, 652.0, 652.0, 652.0, 652.0, 652.0, 653.0, 653.0, 652.0, 652.0, 653.0, 652.0, 652.0, 651.0, 652.0, 652.0, 651.0, 650.0, 650.0, 652.0, 653.0, 652.0, 651.0, 650.0, 650.0, 650.0, 652.0, 652.0, 652.0, 653.0, 652.0, 652.0, 652.0, 653.0, 651.0, 651.0, 651.0, 652.0, 653.0, 653.0, 652.0, 651.0, 651.0, 651.0, 652.0, 651.0, 652.0, 653.0, 652.0, 651.0, 651.0, 652.0, 652.0, 653.0, 652.0, 654.0, 653.0, 652.0, 652.0, 652.0, 653.0, 653.0, 653.0, 653.0, 652.0, 654.0, 653.0, 652.0, 651.0, 651.0, 651.0, 652.0, 651.0, 652.0, 652.0, 652.0, 652.0, 652.0, 652.0, 653.0, 653.0, 651.0, 651.0, 651.0, 651.0, 651.0, 653.0, 652.0, 652.0, 652.0, 653.0, 652.0, 651.0, 652.0, 652.0, 653.0, 652.0, 651.0, 651.0, 651.0, 652.0, 653.0, 653.0, 653.0, 652.0, 653.0, 653.0, 653.0, 653.0, 652.0, 653.0, 653.0, 652.0, 654.0, 652.0, 652.0, 652.0, 653.0, 652.0, 653.0, 652.0, 652.0, 652.0, 653.0, 652.0, 652.0, 652.0, 652.0, 652.0, 653.0, 652.0, 652.0, 651.0, 650.0, 650.0, 649.0, 651.0, 653.0, 652.0, 652.0, 652.0, 652.0, 652.0, 652.0, 652.0, 652.0, 652.0, 651.0, 651.0, 652.0, 653.0, 651.0, 652.0, 652.0, 651.0, 651.0, 652.0, 652.0, 651.0, 648.0, 652.0, 652.0, 651.0, 653.0, 652.0, 652.0, 652.0, 653.0, 653.0, 654.0, 654.0, 654.0, 653.0, 655.0, 655.0, 654.0, 654.0, 652.0, 652.0, 653.0, 653.0, 654.0, 653.0, 654.0, 655.0, 654.0, 653.0, 652.0, 652.0, 652.0, 652.0, 652.0, 653.0, 653.0, 653.0, 654.0, 653.0, 653.0, 653.0, 653.0, 653.0, 652.0, 653.0, 652.0, 652.0, 653.0, 654.0, 655.0, 655.0, 654.0, 655.0, 654.0, 652.0, 652.0, 653.0, 653.0, 652.0, 652.0, 652.0, 653.0, 654.0, 654.0, 654.0, 654.0, 653.0, 654.0, 654.0, 654.0, 654.0, 654.0, 653.0, 653.0, 653.0, 655.0, 654.0, 653.0, 653.0, 652.0, 652.0, 652.0, 652.0, 652.0, 652.0],
