{
  "AcquisitionMatrixPE": 64,
  "AcquisitionNumber": 1,
  "AcquisitionTime": "12:16:2.762500",
  "BandwidthPerPixelPhaseEncode": 31.25,
  "BaseResolution": 64,
  "CoilCombinationMethod": "Sum of Squares",
  "CoilString": "C:HEA;HEP",
  "ConversionSoftware": "dcm2niix",
  "ConversionSoftwareVersion": "v1.0.20211006",
  "DerivedVendorReportedEchoSpacing": 0.0005,
  "DeviceSerialNumber": "35377",
  "DwellTime": 3.4e-06,
  "EchoTime": 0.03,
  "EffectiveEchoSpacing": 0.0005,
  "FlipAngle": 90,
  "ImageOrientationPatientDICOM": [0.998188, 0.0520949, -0.0301063, -0.0558074, 0.98863, -0.139626],
  "ImageOrientationText": "Tra>Cor(-8.1)>Sag(-1.3)",
  "ImageType": [
    "ORIGINAL",
    "PRIMARY",
    "M",
    "ND",
    "MOSAIC"
],
  "ImagingFrequency": 123.256,
  "InPlanePhaseEncodingDirectionDICOM": "COL",
  "InstitutionAddress": "Azinhaga Santa Comba StreetNo,Coimbra,District,PT,3000",
  "InstitutionName": "IBILI",
  "InstitutionalDepartmentName": "Department",
  "MRAcquisitionType": "2D",
  "MagneticFieldStrength": 3,
  "Manufacturer": "Siemens",
  "ManufacturersModelName": "TrioTim",
  "MatrixCoilMode": "SENSE",
  "Modality": "MR",
  "PartialFourier": 1,
  "PatientPosition": "HFS",
  "PercentPhaseFOV": 100,
  "PercentSampling": 100,
  "PhaseEncodingDirection": "j-",
  "PhaseEncodingSteps": 64,
  "PhaseResolution": 1,
  "PixelBandwidth": 2298,
  "ProcedureStepDescription": "Unknown",
  "ProtocolName": "rtfmri_neurofeedback_AvatarAuditivo",
  "PulseSequenceDetails": "%SiemensSeq%\\ep2d_bold",
  "ReceiveCoilName": "HeadMatrix",
  "ReconMatrixPE": 64,
  "RepetitionTime": 2,
  "SAR": 0.167893,
  "ScanOptions": "FS",
  "ScanningSequence": "EP",
  "SequenceName": "*epfid2d1_64",
  "SequenceVariant": "SK",
  "SeriesDescription": "rtfmri_neurofeedback_AvatarAuditivo",
  "SeriesNumber": 7,
  "ShimSetting": [15820, 7503, 21344, 375, 305, 136, -233, 103],
  "SliceThickness": 3,
  "SliceTiming": [0, 1.035, 0.0625, 1.095, 0.1225, 1.1575, 0.1825, 1.2175, 0.245, 1.2775, 0.305, 1.34, 0.365, 1.4, 0.4275, 1.46, 0.4875, 1.5225, 0.5475, 1.5825, 0.61, 1.6425, 0.67, 1.705, 0.73, 1.765, 0.7925, 1.825, 0.8525, 1.8875, 0.9125, 1.9475, 0.975],
  "SoftwareVersions": "syngo MR B17",
  "SpacingBetweenSlices": 3,
  "StationName": "MRC35377",
  "TaskName": "auditoryfeedback",
  "TotalReadoutTime": 0.0315,
  "TxRefAmp": 386.682,
  "dcmmeta_affine": [
    [-3.99275279045105, -0.22322949767112732, -0.06747058033943176, 138.1243438720703],
    [-0.20837973058223724, 3.954521656036377, -0.4231601655483246, -70.659423828125],
    [-0.12042523920536041, 0.5585048198699951, 2.9692394733428955, -75.55908966064453],
    [0.0, 0.0, 0.0, 1.0]
],
  "dcmmeta_reorient_transform": [
    [0.0, -1.0, 0.0, 63.0],
    [1.0, 0.0, 0.0, 0.0],
    [0.0, 0.0, 1.0, 0.0],
    [0.0, 0.0, 0.0, 1.0]
],
  "dcmmeta_shape": [64, 64, 33, 300],
  "dcmmeta_slice_dim": 2,
  "dcmmeta_version": 0.6,
  "global": {
    "const": {
      "AccessionNumber": "JML20150326-0315",
      "AcquisitionMatrix": [64, 0, 0, 64],
      "Allergies": "MEDALERGIESL",
      "AngioFlag": "N",
      "BitsAllocated": 16,
      "BitsStored": 12,
      "Columns": 384,
      "EchoNumbers": 1,
      "EchoTime": 30.0,
      "EchoTrainLength": 1,
      "FlipAngle": 90.0,
      "HighBit": 11,
      "ImageOrientationPatient": [0.99818822280914, 0.05209493243444, -0.030106309302, -0.0558073740469, 0.98863039522641, -0.1396262104208],
      "ImagePositionPatient": [-727.18462785668, -844.53964395921, 68.255526532627],
      "ImageType": [
        "ORIGINAL",
        "PRIMARY",
        "M",
        "ND",
        "MOSAIC"
],
      "ImagedNucleus": "1H",
      "ImagingFrequency": 123.255654,
      "InPlanePhaseEncodingDirection": "COL",
      "MRAcquisitionType": "2D",
      "MagneticFieldStrength": 3.0,
      "Manufacturer": "SIEMENS",
      "ManufacturerModelName": "TrioTim",
      "MedicalAlerts": "MEDALERTS",
      "Modality": "MR",
      "NumberOfAverages": 1.0,
      "NumberOfPhaseEncodingSteps": 64,
      "PercentPhaseFieldOfView": 100.0,
      "PercentSampling": 100.0,
      "PerformedProcedureStepStartTime": "113359.406000",
      "PhotometricInterpretation": "MONOCHROME2",
      "PixelBandwidth": 2298.0,
      "PixelRepresentation": 0,
      "PixelSpacing": [4.0, 4.0],
      "ProtocolName": "rtfmri_neurofeedback_AvatarAuditivo",
      "RepetitionTime": 2000.0,
      "RequestAttributesSequence": [
        {
          "RequestedProcedureID": "7d486359-f3ad-41",
          "ScheduledProcedureStepDescription": "Unknown",
          "ScheduledProcedureStepID": "7d486359-f3ad-41"
        }
],
      "Rows": 384,
      "SAR": 0.16789269899911,
      "SamplesPerPixel": 1,
      "ScanOptions": "FS",
      "ScanningSequence": "EP",
      "SequenceName": "*epfid2d1_64",
      "SequenceVariant": "SK",
      "SeriesDescription": "rtfmri_neurofeedback_AvatarAuditivo",
      "SeriesNumber": 7,
      "SeriesTime": "121605.906000",
      "SliceLocation": -67.924037517673,
      "SliceThickness": 3.0,
      "SmallestImagePixelValue": 0,
      "SoftwareVersions": "syngo MR B17",
      "SpacingBetweenSlices": 2.999999980033,
      "SpecificCharacterSet": "ISO_IR 100",
      "StudyID": "7d486359-f3ad-41",
      "StudyTime": "113359.343000",
      "TransmitCoilName": "Body",
      "VariableFlipAngleFlag": "N",
      "WindowCenterWidthExplanation": "Algo1",
      "dBdt": 0.0},
    "slices": {}
  },
  "time": {
    "samples": {
      "AcquisitionNumber": [1, 2, 3, 4, 5, 6, 7, 8, 9, 10, 11, 12, 13, 14, 15, 16, 17, 18, 19, 20, 21, 22, 23, 24, 25, 26, 27, 28, 29, 30, 31, 32, 33, 34, 35, 36, 37, 38, 39, 40, 41, 42, 43, 44, 45, 46, 47, 48, 49, 50, 51, 52, 53, 54, 55, 56, 57, 58, 59, 60, 61, 62, 63, 64, 65, 66, 67, 68, 69, 70, 71, 72, 73, 74, 75, 76, 77, 78, 79, 80, 81, 82, 83, 84, 85, 86, 87, 88, 89, 90, 91, 92, 93, 94, 95, 96, 97, 98, 99, 100, 101, 102, 103, 104, 105, 106, 107, 108, 109, 110, 111, 112, 113, 114, 115, 116, 117, 118, 119, 120, 121, 122, 123, 124, 125, 126, 127, 128, 129, 130, 131, 132, 133, 134, 135, 136, 137, 138, 139, 140, 141, 142, 143, 144, 145, 146, 147, 148, 149, 150, 151, 152, 153, 154, 155, 156, 157, 158, 159, 160, 161, 162, 163, 164, 165, 166, 167, 168, 169, 170, 171, 172, 173, 174, 175, 176, 177, 178, 179, 180, 181, 182, 183, 184, 185, 186, 187, 188, 189, 190, 191, 192, 193, 194, 195, 196, 197, 198, 199, 200, 201, 202, 203, 204, 205, 206, 207, 208, 209, 210, 211, 212, 213, 214, 215, 216, 217, 218, 219, 220, 221, 222, 223, 224, 225, 226, 227, 228, 229, 230, 231, 232, 233, 234, 235, 236, 237, 238, 239, 240, 241, 242, 243, 244, 245, 246, 247, 248, 249, 250, 251, 252, 253, 254, 255, 256, 257, 258, 259, 260, 261, 262, 263, 264, 265, 266, 267, 268, 269, 270, 271, 272, 273, 274, 275, 276, 277, 278, 279, 280, 281, 282, 283, 284, 285, 286, 287, 288, 289, 290, 291, 292, 293, 294, 295, 296, 297, 298, 299, 300],
      "AcquisitionTime": ["121602.762500", "121604.772500", "121606.780000", "121608.787500", "121610.795000", "121612.802500", "121614.812500", "121616.820000", "121618.827500", "121620.835000", "121622.845000", "121624.852500", "121626.860000", "121628.867500", "121630.875000", "121632.885000", "121634.892500", "121636.900000", "121638.907500", "121640.915000", "121642.925000", "121644.932500", "121646.940000", "121648.947500", "121650.957500", "121652.965000", "121654.972500", "121656.980000", "121658.987500", "121700.997500", "121703.005000", "121705.012500", "121707.020000", "121709.027500", "121711.037500", "121713.045000", "121715.052500", "121717.060000", "121719.070000", "121721.077500", "121723.085000", "121725.092500", "121727.100000", "121729.110000", "121731.117500", "121733.125000", "121735.132500", "121737.140000", "121739.150000", "121741.157500", "121743.165000", "121745.172500", "121747.180000", "121749.190000", "121751.197500", "121753.205000", "121755.212500", "121757.222500", "121759.230000", "121801.237500", "121803.245000", "121805.252500", "121807.262500", "121809.270000", "121811.277500", "121813.285000", "121815.292500", "121817.302500", "121819.310000", "121821.317500", "121823.325000", "121825.335000", "121827.342500", "121829.350000", "121831.357500", "121833.365000", "121835.375000", "121837.382500", "121839.390000", "121841.397500", "121843.405000", "121845.415000", "121847.422500", "121849.430000", "121851.437500", "121853.447500", "121855.455000", "121857.462500", "121859.470000", "121901.477500", "121903.487500", "121905.495000", "121907.502500", "121909.510000", "121911.517500", "121913.527500", "121915.535000", "121917.542500", "121919.550000", "121921.557500", "121923.567500", "121925.575000", "121927.582500", "121929.590000", "121931.600000", "121933.607500", "121935.615000", "121937.622500", "121939.630000", "121941.640000", "121943.647500", "121945.655000", "121947.662500", "121949.670000", "121951.680000", "121953.687500", "121955.695000", "121957.702500", "121959.712500", "122001.720000", "122003.727500", "122005.735000", "122007.742500", "122009.752500", "122011.760000", "122013.767500", "122015.775000", "122017.782500", "122019.792500", "122021.800000", "122023.807500", "122025.815000", "122027.825000", "122029.832500", "122031.840000", "122033.847500", "122035.855000", "122037.865000", "122039.872500", "122041.880000", "122043.887500", "122045.895000", "122047.905000", "122049.912500", "122051.920000", "122053.927500", "122055.935000", "122057.945000", "122059.952500", "122101.960000", "122103.967500", "122105.977500", "122107.985000", "122109.992500", "122112.000000", "122114.007500", "122116.017500", "122118.025000", "122120.032500", "122122.040000", "122124.047500", "122126.057500", "122128.065000", "122130.072500", "122132.080000", "122134.090000", "122136.097500", "122138.105000", "122140.112500", "122142.120000", "122144.130000", "122146.137500", "122148.145000", "122150.152500", "122152.160000", "122154.170000", "122156.177500", "122158.185000", "122200.192500", "122202.202500", "122204.210000", "122206.217500", "122208.225000", "122210.232500", "122212.242500", "122214.250000", "122216.257500", "122218.265000", "122220.272500", "122222.282500", "122224.290000", "122226.297500", "122228.305000", "122230.315000", "122232.322500", "122234.330000", "122236.337500", "122238.345000", "122240.355000", "122242.362500", "122244.370000", "122246.377500", "122248.385000", "122250.395000", "122252.402500", "122254.410000", "122256.417500", "122258.425000", "122300.435000", "122302.442500", "122304.450000", "122306.457500", "122308.467500", "122310.475000", "122312.482500", "122314.490000", "122316.497500", "122318.507500", "122320.515000", "122322.522500", "122324.530000", "122326.537500", "122328.547500", "122330.555000", "122332.562500", "122334.570000", "122336.580000", "122338.587500", "122340.595000", "122342.602500", "122344.610000", "122346.620000", "122348.627500", "122350.635000", "122352.642500", "122354.650000", "122356.660000", "122358.667500", "122400.675000", "122402.682500", "122404.692500", "122406.700000", "122408.707500", "122410.715000", "122412.722500", "122414.732500", "122416.740000", "122418.747500", "122420.755000", "122422.762500", "122424.772500", "122426.780000", "122428.787500", "122430.795000", "122432.802500", "122434.812500", "122436.820000", "122438.827500", "122440.835000", "122442.845000", "122444.852500", "122446.860000", "122448.867500", "122450.875000", "122452.885000", "122454.892500", "122456.900000", "122458.907500", "122500.915000", "122502.925000", "122504.932500", "122506.940000", "122508.947500", "122510.957500", "122512.965000", "122514.972500", "122516.980000", "122518.987500", "122520.997500", "122523.005000", "122525.012500", "122527.020000", "122529.027500", "122531.037500", "122533.045000", "122535.052500", "122537.060000", "122539.070000", "122541.077500", "122543.085000", "122545.092500", "122547.100000", "122549.110000", "122551.117500", "122553.125000", "122555.132500", "122557.140000", "122559.150000", "122601.157500", "122603.165000"],
      "ContentTime": ["121605.921000", "121607.906000", "121609.906000", "121611.906000", "121613.906000", "121615.906000", "121617.906000", "121619.906000", "121621.906000", "121623.906000", "121625.906000", "121627.906000", "121629.906000", "121631.906000", "121633.906000", "121635.906000", "121637.906000", "121639.906000", "121641.906000", "121643.906000", "121645.906000", "121647.906000", "121649.906000", "121651.906000", "121653.906000", "121655.906000", "121657.906000", "121659.906000", "121701.906000", "121703.921000", "121705.921000", "121707.906000", "121709.906000", "121711.906000", "121713.906000", "121715.906000", "121717.906000", "121719.906000", "121721.906000", "121723.906000", "121725.906000", "121727.906000", "121729.906000", "121731.906000", "121733.906000", "121735.906000", "121737.906000", "121739.906000", "121741.906000", "121743.906000", "121745.906000", "121747.906000", "121749.906000", "121751.906000", "121753.906000", "121755.906000", "121757.906000", "121759.906000", "121801.906000", "121803.906000", "121805.906000", "121807.906000", "121809.906000", "121811.906000", "121813.906000", "121815.906000", "121817.906000", "121819.906000", "121821.906000", "121823.906000", "121825.906000", "121827.906000", "121829.906000", "121831.906000", "121833.906000", "121835.906000", "121837.906000", "121839.906000", "121841.906000", "121843.906000", "121845.906000", "121847.906000", "121849.906000", "121851.906000", "121853.906000", "121855.906000", "121857.906000", "121859.906000", "121901.906000", "121903.906000", "121905.906000", "121907.906000", "121909.906000", "121911.906000", "121913.906000", "121915.906000", "121917.906000", "121919.906000", "121921.906000", "121923.906000", "121925.906000", "121927.906000", "121929.906000", "121931.906000", "121933.906000", "121935.906000", "121937.906000", "121939.906000", "121941.906000", "121943.906000", "121945.906000", "121947.906000", "121949.906000", "121951.906000", "121953.906000", "121955.906000", "121957.906000", "121959.906000", "122001.906000", "122003.906000", "122005.906000", "122007.906000", "122009.906000", "122011.906000", "122013.906000", "122015.906000", "122017.906000", "122019.906000", "122021.906000", "122023.906000", "122025.906000", "122027.906000", "122029.906000", "122031.906000", "122033.906000", "122035.906000", "122037.906000", "122039.906000", "122041.906000", "122043.906000", "122045.921000", "122047.906000", "122049.906000", "122051.906000", "122053.906000", "122055.906000", "122057.906000", "122059.906000", "122101.906000", "122103.906000", "122105.906000", "122107.906000", "122109.906000", "122111.906000", "122113.906000", "122115.906000", "122117.906000", "122119.906000", "122121.906000", "122123.906000", "122125.906000", "122127.906000", "122129.906000", "122131.906000", "122133.906000", "122135.906000", "122137.906000", "122139.906000", "122141.906000", "122143.906000", "122145.906000", "122147.906000", "122149.906000", "122151.906000", "122153.906000", "122155.906000", "122157.906000", "122159.906000", "122201.906000", "122203.906000", "122205.906000", "122207.906000", "122209.906000", "122211.906000", "122213.906000", "122215.906000", "122217.906000", "122219.906000", "122221.906000", "122223.906000", "122225.906000", "122227.906000", "122229.906000", "122231.906000", "122233.906000", "122235.906000", "122237.906000", "122239.906000", "122241.906000", "122243.906000", "122245.906000", "122247.906000", "122249.906000", "122251.906000", "122253.906000", "122255.906000", "122257.906000", "122259.906000", "122301.906000", "122303.906000", "122305.906000", "122307.906000", "122309.906000", "122311.906000", "122313.906000", "122315.906000", "122317.906000", "122319.906000", "122321.906000", "122323.906000", "122325.906000", "122327.906000", "122329.906000", "122331.906000", "122333.906000", "122335.906000", "122337.906000", "122339.906000", "122341.906000", "122343.906000", "122345.906000", "122347.906000", "122349.906000", "122351.906000", "122353.906000", "122355.906000", "122357.906000", "122359.906000", "122401.906000", "122403.906000", "122405.906000", "122407.906000", "122409.906000", "122411.906000", "122413.906000", "122415.906000", "122417.906000", "122419.906000", "122421.906000", "122423.906000", "122425.906000", "122427.906000", "122429.906000", "122431.906000", "122433.906000", "122435.906000", "122437.906000", "122439.906000", "122441.906000", "122443.906000", "122445.906000", "122447.906000", "122449.906000", "122451.906000", "122453.906000", "122455.906000", "122457.906000", "122459.906000", "122501.906000", "122503.906000", "122505.906000", "122507.906000", "122509.906000", "122511.906000", "122513.906000", "122515.906000", "122517.906000", "122519.906000", "122521.906000", "122523.906000", "122525.906000", "122527.906000", "122529.906000", "122531.906000", "122533.906000", "122535.906000", "122537.906000", "122539.906000", "122541.906000", "122543.906000", "122545.906000", "122547.906000", "122549.906000", "122551.906000", "122553.906000", "122555.906000", "122557.906000", "122559.906000", "122601.906000", "122603.515000"],
      "InstanceCreationTime": ["121605.921000", "121607.906000", "121609.906000", "121611.906000", "121613.906000", "121615.906000", "121617.906000", "121619.906000", "121621.906000", "121623.906000", "121625.906000", "121627.906000", "121629.906000", "121631.906000", "121633.906000", "121635.906000", "121637.906000", "121639.906000", "121641.906000", "121643.906000", "121645.906000", "121647.906000", "121649.906000", "121651.906000", "121653.906000", "121655.906000", "121657.906000", "121659.906000", "121701.906000", "121703.921000", "121705.921000", "121707.906000", "121709.906000", "121711.906000", "121713.906000", "121715.906000", "121717.906000", "121719.906000", "121721.906000", "121723.906000", "121725.906000", "121727.906000", "121729.906000", "121731.906000", "121733.906000", "121735.906000", "121737.906000", "121739.906000", "121741.906000", "121743.906000", "121745.906000", "121747.906000", "121749.906000", "121751.906000", "121753.906000", "121755.906000", "121757.906000", "121759.906000", "121801.906000", "121803.906000", "121805.906000", "121807.906000", "121809.906000", "121811.906000", "121813.906000", "121815.906000", "121817.906000", "121819.906000", "121821.906000", "121823.906000", "121825.906000", "121827.906000", "121829.906000", "121831.906000", "121833.906000", "121835.906000", "121837.906000", "121839.906000", "121841.906000", "121843.906000", "121845.906000", "121847.906000", "121849.906000", "121851.906000", "121853.906000", "121855.906000", "121857.906000", "121859.906000", "121901.906000", "121903.906000", "121905.906000", "121907.906000", "121909.906000", "121911.906000", "121913.906000", "121915.906000", "121917.906000", "121919.906000", "121921.906000", "121923.906000", "121925.906000", "121927.906000", "121929.906000", "121931.906000", "121933.906000", "121935.906000", "121937.906000", "121939.906000", "121941.906000", "121943.906000", "121945.906000", "121947.906000", "121949.906000", "121951.906000", "121953.906000", "121955.906000", "121957.906000", "121959.906000", "122001.906000", "122003.906000", "122005.906000", "122007.906000", "122009.906000", "122011.906000", "122013.906000", "122015.906000", "122017.906000", "122019.906000", "122021.906000", "122023.906000", "122025.906000", "122027.906000", "122029.906000", "122031.906000", "122033.906000", "122035.906000", "122037.906000", "122039.906000", "122041.906000", "122043.906000", "122045.921000", "122047.906000", "122049.906000", "122051.906000", "122053.906000", "122055.906000", "122057.906000", "122059.906000", "122101.906000", "122103.906000", "122105.906000", "122107.906000", "122109.906000", "122111.906000", "122113.906000", "122115.906000", "122117.906000", "122119.906000", "122121.906000", "122123.906000", "122125.906000", "122127.906000", "122129.906000", "122131.906000", "122133.906000", "122135.906000", "122137.906000", "122139.906000", "122141.906000", "122143.906000", "122145.906000", "122147.906000", "122149.906000", "122151.906000", "122153.906000", "122155.906000", "122157.906000", "122159.906000", "122201.906000", "122203.906000", "122205.906000", "122207.906000", "122209.906000", "122211.906000", "122213.906000", "122215.906000", "122217.906000", "122219.906000", "122221.906000", "122223.906000", "122225.906000", "122227.906000", "122229.906000", "122231.906000", "122233.906000", "122235.906000", "122237.906000", "122239.906000", "122241.906000", "122243.906000", "122245.906000", "122247.906000", "122249.906000", "122251.906000", "122253.906000", "122255.906000", "122257.906000", "122259.906000", "122301.906000", "122303.906000", "122305.906000", "122307.906000", "122309.906000", "122311.906000", "122313.906000", "122315.906000", "122317.906000", "122319.906000", "122321.906000", "122323.906000", "122325.906000", "122327.906000", "122329.906000", "122331.906000", "122333.906000", "122335.906000", "122337.906000", "122339.906000", "122341.906000", "122343.906000", "122345.906000", "122347.906000", "122349.906000", "122351.906000", "122353.906000", "122355.906000", "122357.906000", "122359.906000", "122401.906000", "122403.906000", "122405.906000", "122407.906000", "122409.906000", "122411.906000", "122413.906000", "122415.906000", "122417.906000", "122419.906000", "122421.906000", "122423.906000", "122425.906000", "122427.906000", "122429.906000", "122431.906000", "122433.906000", "122435.906000", "122437.906000", "122439.906000", "122441.906000", "122443.906000", "122445.906000", "122447.906000", "122449.906000", "122451.906000", "122453.906000", "122455.906000", "122457.906000", "122459.906000", "122501.906000", "122503.906000", "122505.906000", "122507.906000", "122509.906000", "122511.906000", "122513.906000", "122515.906000", "122517.906000", "122519.906000", "122521.906000", "122523.906000", "122525.906000", "122527.906000", "122529.906000", "122531.906000", "122533.906000", "122535.906000", "122537.906000", "122539.906000", "122541.906000", "122543.906000", "122545.906000", "122547.906000", "122549.906000", "122551.906000", "122553.906000", "122555.906000", "122557.906000", "122559.906000", "122601.906000", "122603.515000"],
      "InstanceNumber": [1, 2, 3, 4, 5, 6, 7, 8, 9, 10, 11, 12, 13, 14, 15, 16, 17, 18, 19, 20, 21, 22, 23, 24, 25, 26, 27, 28, 29, 30, 31, 32, 33, 34, 35, 36, 37, 38, 39, 40, 41, 42, 43, 44, 45, 46, 47, 48, 49, 50, 51, 52, 53, 54, 55, 56, 57, 58, 59, 60, 61, 62, 63, 64, 65, 66, 67, 68, 69, 70, 71, 72, 73, 74, 75, 76, 77, 78, 79, 80, 81, 82, 83, 84, 85, 86, 87, 88, 89, 90, 91, 92, 93, 94, 95, 96, 97, 98, 99, 100, 101, 102, 103, 104, 105, 106, 107, 108, 109, 110, 111, 112, 113, 114, 115, 116, 117, 118, 119, 120, 121, 122, 123, 124, 125, 126, 127, 128, 129, 130, 131, 132, 133, 134, 135, 136, 137, 138, 139, 140, 141, 142, 143, 144, 145, 146, 147, 148, 149, 150, 151, 152, 153, 154, 155, 156, 157, 158, 159, 160, 161, 162, 163, 164, 165, 166, 167, 168, 169, 170, 171, 172, 173, 174, 175, 176, 177, 178, 179, 180, 181, 182, 183, 184, 185, 186, 187, 188, 189, 190, 191, 192, 193, 194, 195, 196, 197, 198, 199, 200, 201, 202, 203, 204, 205, 206, 207, 208, 209, 210, 211, 212, 213, 214, 215, 216, 217, 218, 219, 220, 221, 222, 223, 224, 225, 226, 227, 228, 229, 230, 231, 232, 233, 234, 235, 236, 237, 238, 239, 240, 241, 242, 243, 244, 245, 246, 247, 248, 249, 250, 251, 252, 253, 254, 255, 256, 257, 258, 259, 260, 261, 262, 263, 264, 265, 266, 267, 268, 269, 270, 271, 272, 273, 274, 275, 276, 277, 278, 279, 280, 281, 282, 283, 284, 285, 286, 287, 288, 289, 290, 291, 292, 293, 294, 295, 296, 297, 298, 299, 300],
      "LargestImagePixelValue": [1588, 1482, 1547, 1472, 1738, 1462, 1488, 1479, 1477, 1484, 1490, 1477, 1477, 1494, 1477, 1476, 1763, 1466, 1477, 1936, 1464, 1456, 1485, 1749, 1465, 1483, 1485, 1459, 1474, 1562, 1479, 1478, 1473, 1482, 1487, 1496, 1469, 1471, 1470, 1492, 1468, 1476, 1480, 1645, 1465, 1492, 1495, 1547, 1476, 1486, 1478, 1471, 1483, 1483, 1547, 1475, 1487, 1662, 1470, 1498, 1775, 1450, 1457, 1469, 1517, 1431, 1483, 1739, 1470, 1456, 1491, 1643, 1479, 1479, 1932, 1463, 1486, 1477, 1465, 1473, 1486, 1482, 1466, 1463, 1497, 1484, 1478, 1454, 1483, 1750, 1617, 1450, 1470, 1751, 1419, 1447, 1437, 1432, 1729, 1415, 1435, 1440, 1436, 1451, 1448, 1456, 1444, 1438, 1446, 1585, 1430, 1472, 1483, 1454, 1473, 1470, 1491, 1458, 1471, 1696, 1458, 1489, 1473, 1475, 1490, 2026, 1468, 1495, 1472, 1456, 1461, 1485, 1470, 1482, 1440, 1479, 1474, 1505, 1563, 1472, 1475, 1462, 1461, 1471, 1456, 1481, 1542, 1479, 1472, 1463, 1475, 1603, 1473, 1502, 1480, 1481, 1493, 1479, 1469, 1481, 1484, 1487, 1633, 1482, 1479, 1482, 1825, 1475, 1494, 1490, 1486, 1470, 1479, 1490, 1726, 1492, 1485, 1485, 1484, 1493, 1476, 1460, 1467, 1479, 1488, 1597, 1478, 1485, 1480, 1484, 1780, 1582, 1470, 1457, 1469, 1477, 1691, 1471, 1494, 1489, 1778, 1949, 1479, 1462, 1482, 1598, 1473, 1466, 1465, 1477, 1469, 1847, 1484, 1463, 1475, 1475, 1470, 1742, 1923, 1477, 1455, 1493, 1711, 1467, 1481, 1493, 1739, 1661, 1636, 1484, 1472, 1465, 1464, 1483, 1495, 1784, 1483, 1476, 1481, 1464, 1477, 1489, 1471, 1732, 1470, 1484, 1498, 1493, 1481, 1468, 1498, 1594, 1746, 1472, 1485, 1499, 1677, 1488, 1458, 1499, 1497, 1754, 1470, 1485, 1501, 1855, 1478, 1485, 1457, 1482, 2005, 1465, 1483, 1489, 1475, 1472, 1481, 1477, 1441, 1556, 1742, 1711, 1943, 1479, 1477, 1474, 1456, 1481, 1477, 1460, 1491, 1863, 1492, 1472, 1477, 1463, 1479, 1704, 1837, 1745],
      "WindowCenter": [648.0, 647.0, 647.0, 646.0, 648.0, 646.0, 645.0, 646.0, 646.0, 646.0, 647.0, 646.0, 646.0, 648.0, 648.0, 649.0, 650.0, 647.0, 646.0, 647.0, 644.0, 644.0, 645.0, 647.0, 645.0, 646.0, 646.0, 646.0, 646.0, 647.0, 646.0, 647.0, 647.0, 647.0, 647.0, 647.0, 647.0, 647.0, 648.0, 649.0, 647.0, 648.0, 647.0, 649.0, 648.0, 648.0, 648.0, 649.0, 648.0, 648.0, 649.0, 649.0, 650.0, 649.0, 650.0, 649.0, 649.0, 650.0, 648.0, 649.0, 651.0, 649.0, 649.0, 650.0, 650.0, 649.0, 649.0, 650.0, 647.0, 646.0, 647.0, 648.0, 646.0, 648.0, 649.0, 645.0, 645.0, 646.0, 646.0, 646.0, 647.0, 648.0, 648.0, 648.0, 648.0, 650.0, 650.0, 650.0, 650.0, 651.0, 650.0, 648.0, 648.0, 650.0, 648.0, 649.0, 647.0, 646.0, 649.0, 647.0, 647.0, 647.0, 647.0, 647.0, 647.0, 647.0, 647.0, 647.0, 647.0, 649.0, 649.0, 649.0, 649.0, 648.0, 648.0, 648.0, 648.0, 648.0, 648.0, 650.0, 648.0, 648.0, 650.0, 651.0, 650.0, 652.0, 647.0, 646.0, 646.0, 646.0, 647.0, 648.0, 648.0, 649.0, 649.0, 649.0, 649.0, 648.0, 648.0, 647.0, 647.0, 647.0, 647.0, 647.0, 647.0, 647.0, 647.0, 646.0, 646.0, 647.0, 647.0, 648.0, 647.0, 647.0, 648.0, 648.0, 648.0, 648.0, 649.0, 649.0, 650.0, 650.0, 650.0, 649.0, 648.0, 648.0, 650.0, 648.0, 648.0, 649.0, 649.0, 649.0, 648.0, 648.0, 650.0, 649.0, 649.0, 649.0, 648.0, 647.0, 646.0, 646.0, 648.0, 648.0, 649.0, 650.0, 648.0, 648.0, 649.0, 649.0, 651.0, 649.0, 648.0, 648.0, 648.0, 648.0, 649.0, 648.0, 649.0, 650.0, 650.0, 650.0, 646.0, 645.0, 645.0, 646.0, 647.0, 648.0, 648.0, 648.0, 647.0, 650.0, 647.0, 647.0, 648.0, 648.0, 647.0, 648.0, 649.0, 646.0, 647.0, 647.0, 649.0, 647.0, 649.0, 650.0, 649.0, 648.0, 647.0, 646.0, 648.0, 647.0, 647.0, 647.0, 646.0, 648.0, 647.0, 648.0, 648.0, 648.0, 648.0, 649.0, 649.0, 650.0, 648.0, 648.0, 649.0, 650.0, 650.0, 650.0, 649.0, 649.0, 650.0, 649.0, 650.0, 649.0, 651.0, 649.0, 648.0, 649.0, 649.0, 650.0, 648.0, 648.0, 648.0, 651.0, 649.0, 649.0, 648.0, 648.0, 650.0, 647.0, 647.0, 648.0, 648.0, 648.0, 648.0, 649.0, 649.0, 652.0, 651.0, 650.0, 649.0, 646.0, 646.0, 647.0, 647.0, 648.0, 647.0, 648.0, 648.0, 650.0, 647.0, 647.0, 647.0, 649.0, 650.0, 651.0, 649.0, 646.0],
