{
  "AcquisitionMatrixPE": 64,
  "AcquisitionNumber": 1,
  "AcquisitionTime": "12:29:32.752500",
  "BandwidthPerPixelPhaseEncode": 31.25,
  "BaseResolution": 64,
  "CoilCombinationMethod": "Sum of Squares",
  "CoilString": "C:HEA;HEP",
  "ConversionSoftware": "dcm2niix",
  "ConversionSoftwareVersion": "v1.0.20211006",
  "DerivedVendorReportedEchoSpacing": 0.0005,
  "DeviceSerialNumber": "35377",
  "DwellTime": 3.4e-06,
  "EchoTime": 0.03,
  "EffectiveEchoSpacing": 0.0005,
  "FlipAngle": 90,
  "ImageOrientationPatientDICOM": [0.998188, 0.0520949, -0.0301063, -0.0558074, 0.98863, -0.139626],
  "ImageOrientationText": "Tra>Cor(-8.1)>Sag(-1.3)",
  "ImageType": [
    "ORIGINAL",
    "PRIMARY",
    "M",
    "ND",
    "MOSAIC"
],
  "ImagingFrequency": 123.256,
  "InPlanePhaseEncodingDirectionDICOM": "COL",
  "InstitutionAddress": "Azinhaga Santa Comba StreetNo,Coimbra,District,PT,3000",
  "InstitutionName": "IBILI",
  "InstitutionalDepartmentName": "Department",
  "MRAcquisitionType": "2D",
  "MagneticFieldStrength": 3,
  "Manufacturer": "Siemens",
  "ManufacturersModelName": "TrioTim",
  "MatrixCoilMode": "SENSE",
  "Modality": "MR",
  "PartialFourier": 1,
  "PatientPosition": "HFS",
  "PercentPhaseFOV": 100,
  "PercentSampling": 100,
  "PhaseEncodingDirection": "j-",
  "PhaseEncodingSteps": 64,
  "PhaseResolution": 1,
  "PixelBandwidth": 2298,
  "ProcedureStepDescription": "Unknown",
  "ProtocolName": "rtfmri_neurofeedback_AvatarNofeedback_2",
  "PulseSequenceDetails": "%SiemensSeq%\\ep2d_bold",
  "ReceiveCoilName": "HeadMatrix",
  "ReconMatrixPE": 64,
  "RepetitionTime": 2,
  "SAR": 0.167893,
  "ScanOptions": "FS",
  "ScanningSequence": "EP",
  "SequenceName": "*epfid2d1_64",
  "SequenceVariant": "SK",
  "SeriesDescription": "rtfmri_neurofeedback_AvatarNofeedback_2",
  "SeriesNumber": 9,
  "ShimSetting": [15820, 7503, 21344, 375, 305, 136, -233, 103],
  "SliceThickness": 3,
  "SliceTiming": [0, 1.035, 0.06, 1.095, 0.1225, 1.155, 0.1825, 1.2175, 0.2425, 1.2775, 0.305, 1.3375, 0.365, 1.4, 0.425, 1.46, 0.4875, 1.52, 0.5475, 1.5825, 0.6075, 1.6425, 0.67, 1.7025, 0.73, 1.765, 0.79, 1.825, 0.8525, 1.885, 0.9125, 1.9475, 0.9725],
  "SoftwareVersions": "syngo MR B17",
  "SpacingBetweenSlices": 3,
  "StationName": "MRC35377",
  "TaskName": "nofeedback",
  "TotalReadoutTime": 0.0315,
  "TxRefAmp": 386.682,
  "dcmmeta_affine": [
    [-3.99275279045105, -0.22322949767112732, -0.06747058033943176, 138.1243438720703],
    [-0.20837973058223724, 3.954521656036377, -0.4231601655483246, -70.659423828125],
    [-0.12042523920536041, 0.5585048198699951, 2.9692394733428955, -75.55908966064453],
    [0.0, 0.0, 0.0, 1.0]
],
  "dcmmeta_reorient_transform": [
    [0.0, -1.0, 0.0, 63.0],
    [1.0, 0.0, 0.0, 0.0],
    [0.0, 0.0, 1.0, 0.0],
    [0.0, 0.0, 0.0, 1.0]
],
  "dcmmeta_shape": [64, 64, 33, 300],
  "dcmmeta_slice_dim": 2,
  "dcmmeta_version": 0.6,
  "global": {
    "const": {
      "AccessionNumber": "JML20150326-0315",
      "AcquisitionMatrix": [64, 0, 0, 64],
      "Allergies": "MEDALERGIESL",
      "AngioFlag": "N",
      "BitsAllocated": 16,
      "BitsStored": 12,
      "Columns": 384,
      "EchoNumbers": 1,
      "EchoTime": 30.0,
      "EchoTrainLength": 1,
      "FlipAngle": 90.0,
      "HighBit": 11,
      "ImageOrientationPatient": [0.99818822280914, 0.05209493243444, -0.030106309302, -0.0558073740469, 0.98863039522641, -0.1396262104208],
      "ImagePositionPatient": [-727.18462785668, -844.53964395921, 68.255526532627],
      "ImageType": [
        "ORIGINAL",
        "PRIMARY",
        "M",
        "ND",
        "MOSAIC"
],
      "ImagedNucleus": "1H",
      "ImagingFrequency": 123.25566,
      "InPlanePhaseEncodingDirection": "COL",
      "MRAcquisitionType": "2D",
      "MagneticFieldStrength": 3.0,
      "Manufacturer": "SIEMENS",
      "ManufacturerModelName": "TrioTim",
      "MedicalAlerts": "MEDALERTS",
      "Modality": "MR",
      "NumberOfAverages": 1.0,
      "NumberOfPhaseEncodingSteps": 64,
      "PercentPhaseFieldOfView": 100.0,
      "PercentSampling": 100.0,
      "PerformedProcedureStepStartTime": "113359.406000",
      "PhotometricInterpretation": "MONOCHROME2",
      "PixelBandwidth": 2298.0,
      "PixelRepresentation": 0,
      "PixelSpacing": [4.0, 4.0],
      "ProtocolName": "rtfmri_neurofeedback_AvatarNofeedback_2",
      "RepetitionTime": 2000.0,
      "RequestAttributesSequence": [
        {
          "RequestedProcedureID": "7d486359-f3ad-41",
          "ScheduledProcedureStepDescription": "Unknown",
          "ScheduledProcedureStepID": "7d486359-f3ad-41"
        }
],
      "Rows": 384,
      "SAR": 0.16789269899911,
      "SamplesPerPixel": 1,
      "ScanOptions": "FS",
      "ScanningSequence": "EP",
      "SequenceName": "*epfid2d1_64",
      "SequenceVariant": "SK",
      "SeriesDescription": "rtfmri_neurofeedback_AvatarNofeedback_2",
      "SeriesNumber": 9,
      "SeriesTime": "122936.328000",
      "SliceLocation": -67.924037517673,
      "SliceThickness": 3.0,
      "SmallestImagePixelValue": 0,
      "SoftwareVersions": "syngo MR B17",
      "SpacingBetweenSlices": 2.999999980033,
      "SpecificCharacterSet": "ISO_IR 100",
      "StudyID": "7d486359-f3ad-41",
      "StudyTime": "113359.343000",
      "TransmitCoilName": "Body",
      "VariableFlipAngleFlag": "N",
      "WindowCenterWidthExplanation": "Algo1",
      "dBdt": 0.0},
    "slices": {}
  },
  "time": {
    "samples": {
      "AcquisitionNumber": [1, 2, 3, 4, 5, 6, 7, 8, 9, 10, 11, 12, 13, 14, 15, 16, 17, 18, 19, 20, 21, 22, 23, 24, 25, 26, 27, 28, 29, 30, 31, 32, 33, 34, 35, 36, 37, 38, 39, 40, 41, 42, 43, 44, 45, 46, 47, 48, 49, 50, 51, 52, 53, 54, 55, 56, 57, 58, 59, 60, 61, 62, 63, 64, 65, 66, 67, 68, 69, 70, 71, 72, 73, 74, 75, 76, 77, 78, 79, 80, 81, 82, 83, 84, 85, 86, 87, 88, 89, 90, 91, 92, 93, 94, 95, 96, 97, 98, 99, 100, 101, 102, 103, 104, 105, 106, 107, 108, 109, 110, 111, 112, 113, 114, 115, 116, 117, 118, 119, 120, 121, 122, 123, 124, 125, 126, 127, 128, 129, 130, 131, 132, 133, 134, 135, 136, 137, 138, 139, 140, 141, 142, 143, 144, 145, 146, 147, 148, 149, 150, 151, 152, 153, 154, 155, 156, 157, 158, 159, 160, 161, 162, 163, 164, 165, 166, 167, 168, 169, 170, 171, 172, 173, 174, 175, 176, 177, 178, 179, 180, 181, 182, 183, 184, 185, 186, 187, 188, 189, 190, 191, 192, 193, 194, 195, 196, 197, 198, 199, 200, 201, 202, 203, 204, 205, 206, 207, 208, 209, 210, 211, 212, 213, 214, 215, 216, 217, 218, 219, 220, 221, 222, 223, 224, 225, 226, 227, 228, 229, 230, 231, 232, 233, 234, 235, 236, 237, 238, 239, 240, 241, 242, 243, 244, 245, 246, 247, 248, 249, 250, 251, 252, 253, 254, 255, 256, 257, 258, 259, 260, 261, 262, 263, 264, 265, 266, 267, 268, 269, 270, 271, 272, 273, 274, 275, 276, 277, 278, 279, 280, 281, 282, 283, 284, 285, 286, 287, 288, 289, 290, 291, 292, 293, 294, 295, 296, 297, 298, 299, 300],
      "AcquisitionTime": ["122932.752500", "122934.760000", "122936.770000", "122938.777500", "122940.785000", "122942.792500", "122944.800000", "122946.810000", "122948.817500", "122950.825000", "122952.832500", "122954.840000", "122956.850000", "122958.857500", "123000.865000", "123002.872500", "123004.882500", "123006.890000", "123008.897500", "123010.905000", "123012.912500", "123014.922500", "123016.930000", "123018.937500", "123020.945000", "123022.952500", "123024.962500", "123026.970000", "123028.977500", "123030.985000", "123032.995000", "123035.002500", "123037.010000", "123039.017500", "123041.025000", "123043.035000", "123045.042500", "123047.050000", "123049.057500", "123051.065000", "123053.075000", "123055.082500", "123057.090000", "123059.097500", "123101.105000", "123103.115000", "123105.122500", "123107.130000", "123109.137500", "123111.147500", "123113.155000", "123115.162500", "123117.170000", "123119.177500", "123121.187500", "123123.195000", "123125.202500", "123127.210000", "123129.217500", "123131.227500", "123133.235000", "123135.242500", "123137.250000", "123139.260000", "123141.267500", "123143.275000", "123145.282500", "123147.290000", "123149.300000", "123151.307500", "123153.315000", "123155.322500", "123157.330000", "123159.340000", "123201.347500", "123203.355000", "123205.362500", "123207.372500", "123209.380000", "123211.387500", "123213.395000", "123215.402500", "123217.412500", "123219.420000", "123221.427500", "123223.435000", "123225.442500", "123227.452500", "123229.460000", "123231.467500", "123233.475000", "123235.482500", "123237.492500", "123239.500000", "123241.507500", "123243.515000", "123245.525000", "123247.532500", "123249.540000", "123251.547500", "123253.555000", "123255.565000", "123257.572500", "123259.580000", "123301.587500", "123303.595000", "123305.605000", "123307.612500", "123309.620000", "123311.627500", "123313.637500", "123315.645000", "123317.652500", "123319.660000", "123321.667500", "123323.677500", "123325.685000", "123327.692500", "123329.700000", "123331.707500", "123333.717500", "123335.725000", "123337.732500", "123339.740000", "123341.750000", "123343.757500", "123345.765000", "123347.772500", "123349.780000", "123351.790000", "123353.797500", "123355.805000", "123357.812500", "123359.820000", "123401.830000", "123403.837500", "123405.845000", "123407.852500", "123409.860000", "123411.870000", "123413.877500", "123415.885000", "123417.892500", "123419.902500", "123421.910000", "123423.917500", "123425.925000", "123427.932500", "123429.942500", "123431.950000", "123433.957500", "123435.965000", "123437.972500", "123439.982500", "123441.990000", "123443.997500", "123446.005000", "123448.015000", "123450.022500", "123452.030000", "123454.037500", "123456.045000", "123458.055000", "123500.062500", "123502.070000", "123504.077500", "123506.085000", "123508.095000", "123510.102500", "123512.110000", "123514.117500", "123516.127500", "123518.135000", "123520.142500", "123522.150000", "123524.157500", "123526.167500", "123528.175000", "123530.182500", "123532.190000", "123534.197500", "123536.207500", "123538.215000", "123540.222500", "123542.230000", "123544.237500", "123546.247500", "123548.255000", "123550.262500", "123552.270000", "123554.280000", "123556.287500", "123558.295000", "123600.302500", "123602.310000", "123604.320000", "123606.327500", "123608.335000", "123610.342500", "123612.350000", "123614.360000", "123616.367500", "123618.375000", "123620.382500", "123622.392500", "123624.400000", "123626.407500", "123628.415000", "123630.422500", "123632.432500", "123634.440000", "123636.447500", "123638.455000", "123640.462500", "123642.472500", "123644.480000", "123646.487500", "123648.495000", "123650.505000", "123652.512500", "123654.520000", "123656.527500", "123658.535000", "123700.545000", "123702.552500", "123704.560000", "123706.567500", "123708.575000", "123710.585000", "123712.592500", "123714.600000", "123716.607500", "123718.617500", "123720.625000", "123722.632500", "123724.640000", "123726.647500", "123728.657500", "123730.665000", "123732.672500", "123734.680000", "123736.687500", "123738.697500", "123740.705000", "123742.712500", "123744.720000", "123746.727500", "123748.737500", "123750.745000", "123752.752500", "123754.760000", "123756.770000", "123758.777500", "123800.785000", "123802.792500", "123804.800000", "123806.810000", "123808.817500", "123810.825000", "123812.832500", "123814.840000", "123816.850000", "123818.857500", "123820.865000", "123822.872500", "123824.882500", "123826.890000", "123828.897500", "123830.905000", "123832.912500", "123834.922500", "123836.930000", "123838.937500", "123840.945000", "123842.952500", "123844.962500", "123846.970000", "123848.977500", "123850.985000", "123852.995000", "123855.002500", "123857.010000", "123859.017500", "123901.025000", "123903.035000", "123905.042500", "123907.050000", "123909.057500", "123911.065000", "123913.075000", "123915.082500", "123917.090000", "123919.097500", "123921.105000", "123923.115000", "123925.122500", "123927.130000", "123929.137500", "123931.147500", "123933.155000"],
      "ContentTime": ["122936.328000", "122938.328000", "122940.328000", "122942.328000", "122944.328000", "122946.328000", "122948.328000", "122950.328000", "122952.328000", "122954.328000", "122956.328000", "122958.328000", "123000.328000", "123002.328000", "123004.328000", "123006.328000", "123008.328000", "123010.328000", "123012.328000", "123014.328000", "123016.328000", "123018.328000", "123020.328000", "123022.328000", "123024.328000", "123026.328000", "123028.328000", "123030.328000", "123032.328000", "123034.328000", "123036.328000", "123038.328000", "123040.328000", "123042.328000", "123044.328000", "123046.328000", "123048.328000", "123050.328000", "123052.328000", "123054.328000", "123056.328000", "123058.328000", "123100.328000", "123102.328000", "123104.328000", "123106.328000", "123108.328000", "123110.328000", "123112.328000", "123114.328000", "123116.328000", "123118.328000", "123120.328000", "123122.328000", "123124.328000", "123126.328000", "123128.328000", "123130.328000", "123132.328000", "123134.328000", "123136.328000", "123138.328000", "123140.328000", "123142.328000", "123144.328000", "123146.328000", "123148.328000", "123150.328000", "123152.328000", "123154.328000", "123156.328000", "123158.328000", "123200.328000", "123202.328000", "123204.328000", "123206.328000", "123208.328000", "123210.328000", "123212.328000", "123214.328000", "123216.328000", "123218.328000", "123220.328000", "123222.328000", "123224.328000", "123226.328000", "123228.328000", "123230.328000", "123232.328000", "123234.328000", "123236.328000", "123238.328000", "123240.328000", "123242.328000", "123244.328000", "123246.328000", "123248.328000", "123250.328000", "123252.328000", "123254.328000", "123256.328000", "123258.328000", "123300.328000", "123302.328000", "123304.328000", "123306.328000", "123308.328000", "123310.328000", "123312.328000", "123314.328000", "123316.328000", "123318.328000", "123320.328000", "123322.328000", "123324.328000", "123326.328000", "123328.328000", "123330.328000", "123332.328000", "123334.328000", "123336.328000", "123338.328000", "123340.328000", "123342.328000", "123344.328000", "123346.328000", "123348.328000", "123350.328000", "123352.328000", "123354.328000", "123356.328000", "123358.328000", "123400.328000", "123402.328000", "123404.328000", "123406.328000", "123408.328000", "123410.328000", "123412.328000", "123414.328000", "123416.328000", "123418.328000", "123420.328000", "123422.328000", "123424.328000", "123426.328000", "123428.328000", "123430.328000", "123432.328000", "123434.328000", "123436.328000", "123438.328000", "123440.328000", "123442.328000", "123444.328000", "123446.328000", "123448.328000", "123450.328000", "123452.328000", "123454.328000", "123456.328000", "123458.328000", "123500.328000", "123502.328000", "123504.328000", "123506.328000", "123508.328000", "123510.328000", "123512.328000", "123514.328000", "123516.328000", "123518.328000", "123520.328000", "123522.328000", "123524.328000", "123526.328000", "123528.328000", "123530.328000", "123532.328000", "123534.328000", "123536.328000", "123538.328000", "123540.328000", "123542.328000", "123544.328000", "123546.328000", "123548.328000", "123550.328000", "123552.328000", "123554.328000", "123556.328000", "123558.328000", "123600.328000", "123602.328000", "123604.328000", "123606.328000", "123608.328000", "123610.328000", "123612.328000", "123614.328000", "123616.328000", "123618.328000", "123620.328000", "123622.328000", "123624.328000", "123626.328000", "123628.328000", "123630.328000", "123632.328000", "123634.328000", "123636.328000", "123638.328000", "123640.328000", "123642.328000", "123644.328000", "123646.328000", "123648.328000", "123650.328000", "123652.328000", "123654.328000", "123656.328000", "123658.328000", "123700.328000", "123702.328000", "123704.328000", "123706.328000", "123708.328000", "123710.328000", "123712.328000", "123714.328000", "123716.328000", "123718.328000", "123720.328000", "123722.328000", "123724.328000", "123726.328000", "123728.328000", "123730.328000", "123732.328000", "123734.328000", "123736.328000", "123738.328000", "123740.328000", "123742.328000", "123744.328000", "123746.328000", "123748.328000", "123750.328000", "123752.328000", "123754.328000", "123756.328000", "123758.328000", "123800.328000", "123802.328000", "123804.328000", "123806.328000", "123808.328000", "123810.328000", "123812.328000", "123814.328000", "123816.328000", "123818.328000", "123820.328000", "123822.328000", "123824.328000", "123826.328000", "123828.328000", "123830.328000", "123832.328000", "123834.328000", "123836.328000", "123838.328000", "123840.328000", "123842.328000", "123844.328000", "123846.328000", "123848.328000", "123850.328000", "123852.328000", "123854.328000", "123856.328000", "123858.328000", "123900.328000", "123902.328000", "123904.328000", "123906.328000", "123908.328000", "123910.328000", "123912.328000", "123914.328000", "123916.328000", "123918.328000", "123920.328000", "123922.328000", "123924.328000", "123926.328000", "123928.328000", "123930.328000", "123932.328000", "123933.921000"],
      "InstanceCreationTime": ["122936.328000", "122938.328000", "122940.328000", "122942.328000", "122944.328000", "122946.328000", "122948.328000", "122950.328000", "122952.328000", "122954.328000", "122956.328000", "122958.328000", "123000.328000", "123002.328000", "123004.328000", "123006.328000", "123008.328000", "123010.328000", "123012.328000", "123014.328000", "123016.328000", "123018.328000", "123020.328000", "123022.328000", "123024.328000", "123026.328000", "123028.328000", "123030.328000", "123032.328000", "123034.328000", "123036.328000", "123038.328000", "123040.328000", "123042.328000", "123044.328000", "123046.328000", "123048.328000", "123050.328000", "123052.328000", "123054.328000", "123056.328000", "123058.328000", "123100.328000", "123102.328000", "123104.328000", "123106.328000", "123108.328000", "123110.328000", "123112.328000", "123114.328000", "123116.328000", "123118.328000", "123120.328000", "123122.328000", "123124.328000", "123126.328000", "123128.328000", "123130.328000", "123132.328000", "123134.328000", "123136.328000", "123138.328000", "123140.328000", "123142.328000", "123144.328000", "123146.328000", "123148.328000", "123150.328000", "123152.328000", "123154.328000", "123156.328000", "123158.328000", "123200.328000", "123202.328000", "123204.328000", "123206.328000", "123208.328000", "123210.328000", "123212.328000", "123214.328000", "123216.328000", "123218.328000", "123220.328000", "123222.328000", "123224.328000", "123226.328000", "123228.328000", "123230.328000", "123232.328000", "123234.328000", "123236.328000", "123238.328000", "123240.328000", "123242.328000", "123244.328000", "123246.328000", "123248.328000", "123250.328000", "123252.328000", "123254.328000", "123256.328000", "123258.328000", "123300.328000", "123302.328000", "123304.328000", "123306.328000", "123308.328000", "123310.328000", "123312.328000", "123314.328000", "123316.328000", "123318.328000", "123320.328000", "123322.328000", "123324.328000", "123326.328000", "123328.328000", "123330.328000", "123332.328000", "123334.328000", "123336.328000", "123338.328000", "123340.328000", "123342.328000", "123344.328000", "123346.328000", "123348.328000", "123350.328000", "123352.328000", "123354.328000", "123356.328000", "123358.328000", "123400.328000", "123402.328000", "123404.328000", "123406.328000", "123408.328000", "123410.328000", "123412.328000", "123414.328000", "123416.328000", "123418.328000", "123420.328000", "123422.328000", "123424.328000", "123426.328000", "123428.328000", "123430.328000", "123432.328000", "123434.328000", "123436.328000", "123438.328000", "123440.328000", "123442.328000", "123444.328000", "123446.328000", "123448.328000", "123450.328000", "123452.328000", "123454.328000", "123456.328000", "123458.328000", "123500.328000", "123502.328000", "123504.328000", "123506.328000", "123508.328000", "123510.328000", "123512.328000", "123514.328000", "123516.328000", "123518.328000", "123520.328000", "123522.328000", "123524.328000", "123526.328000", "123528.328000", "123530.328000", "123532.328000", "123534.328000", "123536.328000", "123538.328000", "123540.328000", "123542.328000", "123544.328000", "123546.328000", "123548.328000", "123550.328000", "123552.328000", "123554.328000", "123556.328000", "123558.328000", "123600.328000", "123602.328000", "123604.328000", "123606.328000", "123608.328000", "123610.328000", "123612.328000", "123614.328000", "123616.328000", "123618.328000", "123620.328000", "123622.328000", "123624.328000", "123626.328000", "123628.328000", "123630.328000", "123632.328000", "123634.328000", "123636.328000", "123638.328000", "123640.328000", "123642.328000", "123644.328000", "123646.328000", "123648.328000", "123650.328000", "123652.328000", "123654.328000", "123656.328000", "123658.328000", "123700.328000", "123702.328000", "123704.328000", "123706.328000", "123708.328000", "123710.328000", "123712.328000", "123714.328000", "123716.328000", "123718.328000", "123720.328000", "123722.328000", "123724.328000", "123726.328000", "123728.328000", "123730.328000", "123732.328000", "123734.328000", "123736.328000", "123738.328000", "123740.328000", "123742.328000", "123744.328000", "123746.328000", "123748.328000", "123750.328000", "123752.328000", "123754.328000", "123756.328000", "123758.328000", "123800.328000", "123802.328000", "123804.328000", "123806.328000", "123808.328000", "123810.328000", "123812.328000", "123814.328000", "123816.328000", "123818.328000", "123820.328000", "123822.328000", "123824.328000", "123826.328000", "123828.328000", "123830.328000", "123832.328000", "123834.328000", "123836.328000", "123838.328000", "123840.328000", "123842.328000", "123844.328000", "123846.328000", "123848.328000", "123850.328000", "123852.328000", "123854.328000", "123856.328000", "123858.328000", "123900.328000", "123902.328000", "123904.328000", "123906.328000", "123908.328000", "123910.328000", "123912.328000", "123914.328000", "123916.328000", "123918.328000", "123920.328000", "123922.328000", "123924.328000", "123926.328000", "123928.328000", "123930.328000", "123932.328000", "123933.921000"],
      "InstanceNumber": [1, 2, 3, 4, 5, 6, 7, 8, 9, 10, 11, 12, 13, 14, 15, 16, 17, 18, 19, 20, 21, 22, 23, 24, 25, 26, 27, 28, 29, 30, 31, 32, 33, 34, 35, 36, 37, 38, 39, 40, 41, 42, 43, 44, 45, 46, 47, 48, 49, 50, 51, 52, 53, 54, 55, 56, 57, 58, 59, 60, 61, 62, 63, 64, 65, 66, 67, 68, 69, 70, 71, 72, 73, 74, 75, 76, 77, 78, 79, 80, 81, 82, 83, 84, 85, 86, 87, 88, 89, 90, 91, 92, 93, 94, 95, 96, 97, 98, 99, 100, 101, 102, 103, 104, 105, 106, 107, 108, 109, 110, 111, 112, 113, 114, 115, 116, 117, 118, 119, 120, 121, 122, 123, 124, 125, 126, 127, 128, 129, 130, 131, 132, 133, 134, 135, 136, 137, 138, 139, 140, 141, 142, 143, 144, 145, 146, 147, 148, 149, 150, 151, 152, 153, 154, 155, 156, 157, 158, 159, 160, 161, 162, 163, 164, 165, 166, 167, 168, 169, 170, 171, 172, 173, 174, 175, 176, 177, 178, 179, 180, 181, 182, 183, 184, 185, 186, 187, 188, 189, 190, 191, 192, 193, 194, 195, 196, 197, 198, 199, 200, 201, 202, 203, 204, 205, 206, 207, 208, 209, 210, 211, 212, 213, 214, 215, 216, 217, 218, 219, 220, 221, 222, 223, 224, 225, 226, 227, 228, 229, 230, 231, 232, 233, 234, 235, 236, 237, 238, 239, 240, 241, 242, 243, 244, 245, 246, 247, 248, 249, 250, 251, 252, 253, 254, 255, 256, 257, 258, 259, 260, 261, 262, 263, 264, 265, 266, 267, 268, 269, 270, 271, 272, 273, 274, 275, 276, 277, 278, 279, 280, 281, 282, 283, 284, 285, 286, 287, 288, 289, 290, 291, 292, 293, 294, 295, 296, 297, 298, 299, 300],
      "LargestImagePixelValue": [1534, 1405, 1386, 1825, 1399, 1398, 1420, 1397, 1671, 1408, 1402, 1437, 1389, 1436, 1664, 1555, 1395, 1403, 1407, 1394, 1677, 1380, 1403, 1399, 1404, 1395, 1401, 1714, 2012, 1801, 1394, 1382, 1421, 1405, 1849, 1486, 1404, 1419, 1468, 1511, 2135, 2271, 1646, 1408, 1404, 1413, 1488, 1412, 1391, 1479, 1398, 1805, 1381, 1374, 1398, 1407, 1400, 1435, 1835, 1873, 1433, 1403, 1389, 1434, 1491, 2002, 1990, 1557, 1413, 1410, 1411, 1424, 1445, 1514, 1382, 1436, 1439, 1425, 2159, 1817, 1911, 1532, 1757, 1459, 1460, 1470, 1466, 1438, 1463, 1445, 1467, 1418, 1483, 1438, 1589, 2291, 2275, 1408, 1371, 1550, 1385, 1417, 1424, 1421, 1424, 1411, 1962, 1492, 1405, 1437, 1406, 1412, 1812, 2191, 1404, 1404, 1451, 1386, 1433, 1424, 1914, 1673, 2170, 1633, 1717, 1424, 1430, 1436, 1408, 1423, 1423, 1436, 1463, 1423, 1685, 1491, 1496, 1537, 2113, 2221, 1456, 1447, 1431, 1424, 1418, 1435, 1578, 1416, 1508, 1504, 2047, 2291, 1570, 1475, 1471, 1474, 1473, 1757, 1464, 1464, 1456, 1450, 1460, 1444, 1432, 1610, 1591, 2190, 1648, 1426, 1431, 1411, 1435, 1446, 1447, 1455, 1445, 2055, 1431, 1415, 1417, 1395, 1437, 1443, 1965, 1458, 2040, 2335, 1411, 1408, 1413, 1413, 1424, 1412, 1437, 1431, 1420, 1491, 1500, 1723, 1727, 1545, 1403, 1402, 1403, 1429, 1648, 2276, 1392, 1408, 1641, 1908, 1416, 1420, 1394, 1442, 1742, 1724, 1743, 1717, 2179, 1448, 1464, 1455, 1466, 1477, 1480, 1805, 1446, 1545, 1461, 1440, 1559, 2186, 2171, 1431, 1591, 1425, 1431, 1480, 2067, 1512, 1479, 1485, 1503, 1487, 1694, 1526, 1480, 1484, 1466, 1473, 1472, 1461, 1468, 1475, 1783, 1469, 1446, 1464, 1466, 1447, 1781, 1439, 1437, 1455, 1479, 1476, 1463, 1486, 1494, 1801, 1467, 1464, 1477, 1475, 1486, 1465, 1464, 1480, 1810, 1881, 1920, 1456, 1495, 1473, 1436, 1452, 2045, 1557, 1466, 1424, 1830, 1589, 1775, 1957, 1770, 1459, 1420, 1449],
      "WindowCenter": [646.0, 645.0, 645.0, 648.0, 646.0, 645.0, 644.0, 645.0, 648.0, 646.0, 645.0, 646.0, 645.0, 647.0, 649.0, 648.0, 646.0, 646.0, 646.0, 647.0, 649.0, 647.0, 647.0, 648.0, 648.0, 648.0, 647.0, 652.0, 652.0, 649.0, 645.0, 645.0, 645.0, 645.0, 649.0, 646.0, 646.0, 648.0, 648.0, 647.0, 649.0, 649.0, 646.0, 645.0, 645.0, 646.0, 646.0, 646.0, 645.0, 646.0, 645.0, 648.0, 644.0, 644.0, 646.0, 646.0, 647.0, 649.0, 652.0, 650.0, 645.0, 645.0, 646.0, 648.0, 648.0, 651.0, 649.0, 645.0, 644.0, 645.0, 645.0, 645.0, 645.0, 647.0, 647.0, 648.0, 647.0, 645.0, 647.0, 643.0, 645.0, 643.0, 645.0, 644.0, 644.0, 646.0, 647.0, 647.0, 646.0, 646.0, 647.0, 649.0, 651.0, 651.0, 650.0, 650.0, 647.0, 640.0, 640.0, 643.0, 641.0, 644.0, 646.0, 645.0, 645.0, 645.0, 649.0, 645.0, 644.0, 646.0, 647.0, 646.0, 648.0, 649.0, 643.0, 643.0, 644.0, 645.0, 648.0, 647.0, 649.0, 646.0, 648.0, 645.0, 646.0, 644.0, 645.0, 645.0, 645.0, 646.0, 646.0, 646.0, 646.0, 649.0, 650.0, 649.0, 648.0, 647.0, 649.0, 649.0, 644.0, 646.0, 646.0, 646.0, 646.0, 646.0, 649.0, 648.0, 648.0, 648.0, 652.0, 650.0, 645.0, 645.0, 646.0, 647.0, 647.0, 649.0, 646.0, 647.0, 647.0, 647.0, 647.0, 647.0, 649.0, 652.0, 650.0, 652.0, 648.0, 645.0, 646.0, 646.0, 647.0, 647.0, 647.0, 647.0, 647.0, 651.0, 646.0, 646.0, 646.0, 646.0, 650.0, 650.0, 652.0, 646.0, 648.0, 646.0, 641.0, 640.0, 641.0, 642.0, 643.0, 645.0, 648.0, 649.0, 648.0, 648.0, 647.0, 648.0, 648.0, 647.0, 646.0, 647.0, 648.0, 648.0, 648.0, 648.0, 643.0, 643.0, 646.0, 648.0, 644.0, 644.0, 646.0, 649.0, 649.0, 647.0, 646.0, 645.0, 648.0, 644.0, 645.0, 646.0, 647.0, 648.0, 648.0, 650.0, 647.0, 648.0, 647.0, 648.0, 651.0, 653.0, 650.0, 644.0, 645.0, 642.0, 643.0, 646.0, 649.0, 647.0, 648.0, 648.0, 649.0, 649.0, 651.0, 649.0, 650.0, 650.0, 649.0, 649.0, 649.0, 648.0, 652.0, 651.0, 652.0, 649.0, 648.0, 649.0, 650.0, 649.0, 651.0, 647.0, 647.0, 648.0, 649.0, 648.0, 648.0, 649.0, 650.0, 651.0, 648.0, 647.0, 647.0, 648.0, 648.0, 649.0, 651.0, 651.0, 653.0, 651.0, 650.0, 646.0, 648.0, 648.0, 648.0, 648.0, 651.0, 647.0, 647.0, 649.0, 651.0, 649.0, 649.0, 649.0, 647.0, 645.0, 645.0, 647.0],
