{
  "AcquisitionMatrixPE": 64,
  "AcquisitionNumber": 1,
  "AcquisitionTime": "14:50:17.755000",
  "BandwidthPerPixelPhaseEncode": 31.25,
  "BaseResolution": 64,
  "CoilCombinationMethod": "Sum of Squares",
  "CoilString": "C:HEA;HEP",
  "ConversionSoftware": "dcm2niix",
  "ConversionSoftwareVersion": "v1.0.20211006",
  "DerivedVendorReportedEchoSpacing": 0.0005,
  "DeviceSerialNumber": "35377",
  "DwellTime": 3.4e-06,
  "EchoTime": 0.03,
  "EffectiveEchoSpacing": 0.0005,
  "FlipAngle": 90,
  "ImageOrientationPatientDICOM": [0.998256, 0.0121304, 0.0577769, -0.0156818, 0.997989, 0.0614166],
  "ImageOrientationText": "Tra>Cor(3.6)>Sag(3.3)",
  "ImageType": [
    "ORIGINAL",
    "PRIMARY",
    "M",
    "ND",
    "MOSAIC"
],
  "ImagingFrequency": 123.256,
  "InPlanePhaseEncodingDirectionDICOM": "COL",
  "InstitutionAddress": "Azinhaga Santa Comba StreetNo,Coimbra,District,PT,3000",
  "InstitutionName": "IBILI",
  "InstitutionalDepartmentName": "Department",
  "MRAcquisitionType": "2D",
  "MagneticFieldStrength": 3,
  "Manufacturer": "Siemens",
  "ManufacturersModelName": "TrioTim",
  "MatrixCoilMode": "SENSE",
  "Modality": "MR",
  "PartialFourier": 1,
  "PatientPosition": "HFS",
  "PercentPhaseFOV": 100,
  "PercentSampling": 100,
  "PhaseEncodingDirection": "j-",
  "PhaseEncodingSteps": 64,
  "PhaseResolution": 1,
  "PixelBandwidth": 2298,
  "ProcedureStepDescription": "Unknown",
  "ProtocolName": "rtfmri_neurofeedback_AvatarVisual",
  "PulseSequenceDetails": "%SiemensSeq%\\ep2d_bold",
  "ReceiveCoilName": "HeadMatrix",
  "ReconMatrixPE": 64,
  "RepetitionTime": 2,
  "SAR": 0.140191,
  "ScanOptions": "FS",
  "ScanningSequence": "EP",
  "SequenceName": "*epfid2d1_64",
  "SequenceVariant": "SK",
  "SeriesDescription": "rtfmri_neurofeedback_AvatarVisual",
  "SeriesNumber": 5,
  "ShimSetting": [15858, 7507, 21367, 546, 196, -642, 137, -15],
  "SliceThickness": 3,
  "SliceTiming": [0, 1.0325, 0.06, 1.095, 0.12, 1.155, 0.1825, 1.215, 0.2425, 1.2775, 0.3025, 1.3375, 0.365, 1.3975, 0.425, 1.46, 0.485, 1.52, 0.5475, 1.58, 0.6075, 1.6425, 0.6675, 1.7025, 0.73, 1.7625, 0.79, 1.825, 0.85, 1.885, 0.9125, 1.945, 0.9725],
  "SoftwareVersions": "syngo MR B17",
  "SpacingBetweenSlices": 3,
  "StationName": "MRC35377",
  "TaskName": "visualfeedback",
  "TotalReadoutTime": 0.0315,
  "TxRefAmp": 362.122,
  "dcmmeta_affine": [
    [-3.99302339553833, -0.0627271980047226, 0.17074698209762573, 129.06112670898438],
    [-0.04852154478430748, 3.9919559955596924, 0.1866464465856552, -86.40364074707031],
    [0.2311074137687683, -0.2456662356853485, 2.9893157482147217, -47.855594635009766],
    [0.0, 0.0, 0.0, 1.0]
],
  "dcmmeta_reorient_transform": [
    [0.0, -1.0, 0.0, 63.0],
    [1.0, 0.0, 0.0, 0.0],
    [0.0, 0.0, 1.0, 0.0],
    [0.0, 0.0, 0.0, 1.0]
],
  "dcmmeta_shape": [64, 64, 33, 300],
  "dcmmeta_slice_dim": 2,
  "dcmmeta_version": 0.6,
  "global": {
    "const": {
      "AccessionNumber": "GMR20150205-0811",
      "AcquisitionMatrix": [64, 0, 0, 64],
      "Allergies": "MEDALERGIESL",
      "AngioFlag": "N",
      "BitsAllocated": 16,
      "BitsStored": 12,
      "Columns": 384,
      "EchoNumbers": 1,
      "EchoTime": 30.0,
      "EchoTrainLength": 1,
      "FlipAngle": 90.0,
      "HighBit": 11,
      "ImageOrientationPatient": [0.99825582340261, 0.01213038576505, 0.05777685335821, -0.0156817990985, 0.9979890217921, 0.06141655769803],
      "ImagePositionPatient": [-753.95669584607, -811.56601271263, -139.61634916995],
      "ImageType": [
        "ORIGINAL",
        "PRIMARY",
        "M",
        "ND",
        "MOSAIC"
],
      "ImagedNucleus": "1H",
      "ImagingFrequency": 123.255596,
      "InPlanePhaseEncodingDirection": "COL",
      "MRAcquisitionType": "2D",
      "MagneticFieldStrength": 3.0,
      "Manufacturer": "SIEMENS",
      "ManufacturerModelName": "TrioTim",
      "MedicalAlerts": "MEDALERTS",
      "Modality": "MR",
      "NumberOfAverages": 1.0,
      "NumberOfPhaseEncodingSteps": 64,
      "PercentPhaseFieldOfView": 100.0,
      "PercentSampling": 100.0,
      "PerformedProcedureStepStartTime": "141836.796000",
      "PhotometricInterpretation": "MONOCHROME2",
      "PixelBandwidth": 2298.0,
      "PixelRepresentation": 0,
      "PixelSpacing": [4.0, 4.0],
      "ProtocolName": "rtfmri_neurofeedback_AvatarVisual",
      "RepetitionTime": 2000.0,
      "RequestAttributesSequence": [
        {
          "RequestedProcedureID": "75341749-af4e-40",
          "ScheduledProcedureStepDescription": "Unknown",
          "ScheduledProcedureStepID": "75341749-af4e-40"
        }
],
      "Rows": 384,
      "SAR": 0.14019078595899,
      "SamplesPerPixel": 1,
      "ScanOptions": "FS",
      "ScanningSequence": "EP",
      "SequenceName": "*epfid2d1_64",
      "SequenceVariant": "SK",
      "SeriesDescription": "rtfmri_neurofeedback_AvatarVisual",
      "SeriesNumber": 5,
      "SeriesTime": "145021.921000",
      "SliceLocation": -45.715204341405,
      "SliceThickness": 3.0,
      "SmallestImagePixelValue": 0,
      "SoftwareVersions": "syngo MR B17",
      "SpacingBetweenSlices": 3.0000000118195,
      "SpecificCharacterSet": "ISO_IR 100",
      "StudyID": "75341749-af4e-40",
      "StudyTime": "141836.734000",
      "TransmitCoilName": "Body",
      "VariableFlipAngleFlag": "N",
      "WindowCenterWidthExplanation": "Algo1",
      "dBdt": 0.0},
    "slices": {}
  },
  "time": {
    "samples": {
      "AcquisitionNumber": [1, 2, 3, 4, 5, 6, 7, 8, 9, 10, 11, 12, 13, 14, 15, 16, 17, 18, 19, 20, 21, 22, 23, 24, 25, 26, 27, 28, 29, 30, 31, 32, 33, 34, 35, 36, 37, 38, 39, 40, 41, 42, 43, 44, 45, 46, 47, 48, 49, 50, 51, 52, 53, 54, 55, 56, 57, 58, 59, 60, 61, 62, 63, 64, 65, 66, 67, 68, 69, 70, 71, 72, 73, 74, 75, 76, 77, 78, 79, 80, 81, 82, 83, 84, 85, 86, 87, 88, 89, 90, 91, 92, 93, 94, 95, 96, 97, 98, 99, 100, 101, 102, 103, 104, 105, 106, 107, 108, 109, 110, 111, 112, 113, 114, 115, 116, 117, 118, 119, 120, 121, 122, 123, 124, 125, 126, 127, 128, 129, 130, 131, 132, 133, 134, 135, 136, 137, 138, 139, 140, 141, 142, 143, 144, 145, 146, 147, 148, 149, 150, 151, 152, 153, 154, 155, 156, 157, 158, 159, 160, 161, 162, 163, 164, 165, 166, 167, 168, 169, 170, 171, 172, 173, 174, 175, 176, 177, 178, 179, 180, 181, 182, 183, 184, 185, 186, 187, 188, 189, 190, 191, 192, 193, 194, 195, 196, 197, 198, 199, 200, 201, 202, 203, 204, 205, 206, 207, 208, 209, 210, 211, 212, 213, 214, 215, 216, 217, 218, 219, 220, 221, 222, 223, 224, 225, 226, 227, 228, 229, 230, 231, 232, 233, 234, 235, 236, 237, 238, 239, 240, 241, 242, 243, 244, 245, 246, 247, 248, 249, 250, 251, 252, 253, 254, 255, 256, 257, 258, 259, 260, 261, 262, 263, 264, 265, 266, 267, 268, 269, 270, 271, 272, 273, 274, 275, 276, 277, 278, 279, 280, 281, 282, 283, 284, 285, 286, 287, 288, 289, 290, 291, 292, 293, 294, 295, 296, 297, 298, 299, 300],
      "AcquisitionTime": ["145017.755000", "145019.762500", "145021.770000", "145023.777500", "145025.785000", "145027.795000", "145029.802500", "145031.810000", "145033.817500", "145035.827500", "145037.835000", "145039.842500", "145041.850000", "145043.857500", "145045.867500", "145047.875000", "145049.882500", "145051.890000", "145053.897500", "145055.907500", "145057.915000", "145059.922500", "145101.930000", "145103.940000", "145105.947500", "145107.955000", "145109.962500", "145111.970000", "145113.980000", "145115.987500", "145117.995000", "145120.002500", "145122.010000", "145124.020000", "145126.027500", "145128.035000", "145130.042500", "145132.052500", "145134.060000", "145136.067500", "145138.075000", "145140.082500", "145142.092500", "145144.100000", "145146.107500", "145148.115000", "145150.122500", "145152.132500", "145154.140000", "145156.147500", "145158.155000", "145200.165000", "145202.172500", "145204.180000", "145206.187500", "145208.195000", "145210.205000", "145212.212500", "145214.220000", "145216.227500", "145218.235000", "145220.245000", "145222.252500", "145224.260000", "145226.267500", "145228.275000", "145230.285000", "145232.292500", "145234.300000", "145236.307500", "145238.317500", "145240.325000", "145242.332500", "145244.340000", "145246.347500", "145248.357500", "145250.365000", "145252.372500", "145254.380000", "145256.387500", "145258.397500", "145300.405000", "145302.412500", "145304.420000", "145306.430000", "145308.437500", "145310.445000", "145312.452500", "145314.460000", "145316.470000", "145318.477500", "145320.485000", "145322.492500", "145324.500000", "145326.510000", "145328.517500", "145330.525000", "145332.532500", "145334.542500", "145336.550000", "145338.557500", "145340.565000", "145342.572500", "145344.582500", "145346.590000", "145348.597500", "145350.605000", "145352.612500", "145354.622500", "145356.630000", "145358.637500", "145400.645000", "145402.652500", "145404.662500", "145406.670000", "145408.677500", "145410.685000", "145412.695000", "145414.702500", "145416.710000", "145418.717500", "145420.725000", "145422.735000", "145424.742500", "145426.750000", "145428.757500", "145430.765000", "145432.775000", "145434.782500", "145436.790000", "145438.797500", "145440.807500", "145442.815000", "145444.822500", "145446.830000", "145448.837500", "145450.847500", "145452.855000", "145454.862500", "145456.870000", "145458.877500", "145500.887500", "145502.895000", "145504.902500", "145506.910000", "145508.920000", "145510.927500", "145512.935000", "145514.942500", "145516.950000", "145518.960000", "145520.967500", "145522.975000", "145524.982500", "145526.990000", "145529.000000", "145531.007500", "145533.015000", "145535.022500", "145537.030000", "145539.040000", "145541.047500", "145543.055000", "145545.062500", "145547.072500", "145549.080000", "145551.087500", "145553.095000", "145555.102500", "145557.112500", "145559.120000", "145601.127500", "145603.135000", "145605.142500", "145607.152500", "145609.160000", "145611.167500", "145613.175000", "145615.185000", "145617.192500", "145619.200000", "145621.207500", "145623.215000", "145625.225000", "145627.232500", "145629.240000", "145631.247500", "145633.255000", "145635.265000", "145637.272500", "145639.280000", "145641.287500", "145643.297500", "145645.305000", "145647.312500", "145649.320000", "145651.327500", "145653.337500", "145655.345000", "145657.352500", "145659.360000", "145701.367500", "145703.377500", "145705.385000", "145707.392500", "145709.400000", "145711.407500", "145713.417500", "145715.425000", "145717.432500", "145719.440000", "145721.450000", "145723.457500", "145725.465000", "145727.472500", "145729.480000", "145731.490000", "145733.497500", "145735.505000", "145737.512500", "145739.520000", "145741.530000", "145743.537500", "145745.545000", "145747.552500", "145749.562500", "145751.570000", "145753.577500", "145755.585000", "145757.592500", "145759.602500", "145801.610000", "145803.617500", "145805.625000", "145807.632500", "145809.642500", "145811.650000", "145813.657500", "145815.665000", "145817.675000", "145819.682500", "145821.690000", "145823.697500", "145825.705000", "145827.715000", "145829.722500", "145831.730000", "145833.737500", "145835.745000", "145837.755000", "145839.762500", "145841.770000", "145843.777500", "145845.785000", "145847.795000", "145849.802500", "145851.810000", "145853.817500", "145855.827500", "145857.835000", "145859.842500", "145901.850000", "145903.857500", "145905.867500", "145907.875000", "145909.882500", "145911.890000", "145913.897500", "145915.907500", "145917.915000", "145919.922500", "145921.930000", "145923.940000", "145925.947500", "145927.955000", "145929.962500", "145931.970000", "145933.980000", "145935.987500", "145937.995000", "145940.002500", "145942.010000", "145944.020000", "145946.027500", "145948.035000", "145950.042500", "145952.052500", "145954.060000", "145956.067500", "145958.075000", "150000.082500", "150002.092500", "150004.100000", "150006.107500", "150008.115000", "150010.122500", "150012.132500", "150014.140000", "150016.147500", "150018.155000"],
      "ContentTime": ["145021.921000", "145023.906000", "145025.906000", "145027.906000", "145029.906000", "145031.906000", "145033.906000", "145035.906000", "145037.906000", "145039.906000", "145041.906000", "145043.906000", "145045.906000", "145047.906000", "145049.906000", "145051.906000", "145053.906000", "145055.906000", "145057.906000", "145059.906000", "145101.906000", "145103.906000", "145105.906000", "145107.906000", "145109.906000", "145111.906000", "145113.906000", "145115.906000", "145117.906000", "145119.906000", "145121.906000", "145123.906000", "145125.906000", "145127.906000", "145129.906000", "145131.906000", "145133.906000", "145135.906000", "145137.906000", "145139.906000", "145141.906000", "145143.906000", "145145.906000", "145147.906000", "145149.906000", "145151.906000", "145153.906000", "145155.906000", "145157.906000", "145159.906000", "145201.906000", "145203.906000", "145205.906000", "145207.906000", "145209.906000", "145211.906000", "145213.906000", "145215.906000", "145217.906000", "145219.906000", "145221.906000", "145223.906000", "145225.906000", "145227.906000", "145229.906000", "145231.906000", "145233.906000", "145235.906000", "145237.906000", "145239.906000", "145241.906000", "145243.906000", "145245.906000", "145247.906000", "145249.906000", "145251.906000", "145253.906000", "145255.906000", "145257.906000", "145259.906000", "145301.906000", "145303.906000", "145305.906000", "145307.906000", "145309.906000", "145311.906000", "145313.906000", "145315.906000", "145317.906000", "145319.906000", "145321.906000", "145323.906000", "145325.906000", "145327.906000", "145329.906000", "145331.906000", "145333.906000", "145335.906000", "145337.906000", "145339.906000", "145341.906000", "145343.906000", "145345.906000", "145347.906000", "145349.906000", "145351.906000", "145353.906000", "145355.906000", "145357.906000", "145359.906000", "145401.906000", "145403.906000", "145405.906000", "145407.906000", "145409.906000", "145411.906000", "145413.906000", "145415.921000", "145417.906000", "145419.906000", "145421.906000", "145423.906000", "145425.906000", "145427.906000", "145429.906000", "145431.906000", "145433.906000", "145435.906000", "145437.906000", "145439.921000", "145441.906000", "145443.906000", "145445.906000", "145447.906000", "145449.906000", "145451.906000", "145453.906000", "145455.906000", "145457.906000", "145459.906000", "145501.906000", "145503.906000", "145505.906000", "145507.906000", "145509.906000", "145511.906000", "145513.906000", "145515.906000", "145517.906000", "145519.906000", "145521.906000", "145523.906000", "145525.906000", "145527.906000", "145529.906000", "145531.906000", "145533.906000", "145535.906000", "145537.906000", "145539.906000", "145541.906000", "145543.906000", "145545.906000", "145547.906000", "145549.906000", "145551.906000", "145553.906000", "145555.906000", "145557.906000", "145559.906000", "145601.906000", "145603.906000", "145605.906000", "145607.906000", "145609.906000", "145611.906000", "145613.906000", "145615.906000", "145617.906000", "145619.906000", "145621.906000", "145623.906000", "145625.906000", "145627.906000", "145629.906000", "145631.906000", "145633.906000", "145635.906000", "145637.906000", "145639.906000", "145641.906000", "145643.906000", "145645.906000", "145647.906000", "145649.906000", "145651.906000", "145653.906000", "145655.906000", "145657.921000", "145659.906000", "145701.906000", "145703.906000", "145705.906000", "145707.906000", "145709.906000", "145711.906000", "145713.906000", "145715.906000", "145717.906000", "145719.906000", "145721.906000", "145723.906000", "145725.906000", "145727.906000", "145729.906000", "145731.906000", "145733.906000", "145735.906000", "145737.906000", "145739.906000", "145741.906000", "145743.906000", "145745.906000", "145747.906000", "145749.906000", "145751.906000", "145753.906000", "145755.906000", "145757.906000", "145759.906000", "145801.906000", "145803.906000", "145805.906000", "145807.906000", "145809.906000", "145811.906000", "145813.906000", "145815.906000", "145817.906000", "145819.906000", "145821.906000", "145823.906000", "145825.906000", "145827.906000", "145829.906000", "145831.906000", "145833.906000", "145835.906000", "145837.906000", "145839.906000", "145841.906000", "145843.906000", "145845.906000", "145847.906000", "145849.906000", "145851.906000", "145853.906000", "145855.906000", "145857.906000", "145859.906000", "145901.906000", "145903.906000", "145905.906000", "145907.906000", "145909.906000", "145911.906000", "145913.906000", "145915.906000", "145917.906000", "145919.906000", "145921.906000", "145923.906000", "145925.906000", "145927.906000", "145929.906000", "145931.906000", "145933.906000", "145935.906000", "145937.906000", "145939.906000", "145941.906000", "145943.906000", "145945.906000", "145947.906000", "145949.906000", "145951.906000", "145953.906000", "145955.906000", "145957.906000", "145959.921000", "150001.906000", "150003.921000", "150005.921000", "150007.906000", "150009.906000", "150011.906000", "150013.906000", "150015.906000", "150017.906000", "150019.515000"],
      "InstanceCreationTime": ["145021.921000", "145023.906000", "145025.906000", "145027.906000", "145029.906000", "145031.906000", "145033.906000", "145035.906000", "145037.906000", "145039.906000", "145041.906000", "145043.906000", "145045.906000", "145047.906000", "145049.906000", "145051.906000", "145053.906000", "145055.906000", "145057.906000", "145059.906000", "145101.906000", "145103.906000", "145105.906000", "145107.906000", "145109.906000", "145111.906000", "145113.906000", "145115.906000", "145117.906000", "145119.906000", "145121.906000", "145123.906000", "145125.906000", "145127.906000", "145129.906000", "145131.906000", "145133.906000", "145135.906000", "145137.906000", "145139.906000", "145141.906000", "145143.906000", "145145.906000", "145147.906000", "145149.906000", "145151.906000", "145153.906000", "145155.906000", "145157.906000", "145159.906000", "145201.906000", "145203.906000", "145205.906000", "145207.906000", "145209.906000", "145211.906000", "145213.906000", "145215.906000", "145217.906000", "145219.906000", "145221.906000", "145223.906000", "145225.906000", "145227.906000", "145229.906000", "145231.906000", "145233.906000", "145235.906000", "145237.906000", "145239.906000", "145241.906000", "145243.906000", "145245.906000", "145247.906000", "145249.906000", "145251.906000", "145253.906000", "145255.906000", "145257.906000", "145259.906000", "145301.906000", "145303.906000", "145305.906000", "145307.906000", "145309.906000", "145311.906000", "145313.906000", "145315.906000", "145317.906000", "145319.906000", "145321.906000", "145323.906000", "145325.906000", "145327.906000", "145329.906000", "145331.906000", "145333.906000", "145335.906000", "145337.906000", "145339.906000", "145341.906000", "145343.906000", "145345.906000", "145347.906000", "145349.906000", "145351.906000", "145353.906000", "145355.906000", "145357.906000", "145359.906000", "145401.906000", "145403.906000", "145405.906000", "145407.906000", "145409.906000", "145411.906000", "145413.906000", "145415.921000", "145417.906000", "145419.906000", "145421.906000", "145423.906000", "145425.906000", "145427.906000", "145429.906000", "145431.906000", "145433.906000", "145435.906000", "145437.906000", "145439.921000", "145441.906000", "145443.906000", "145445.906000", "145447.906000", "145449.906000", "145451.906000", "145453.906000", "145455.906000", "145457.906000", "145459.906000", "145501.906000", "145503.906000", "145505.906000", "145507.906000", "145509.906000", "145511.906000", "145513.906000", "145515.906000", "145517.906000", "145519.906000", "145521.906000", "145523.906000", "145525.906000", "145527.906000", "145529.906000", "145531.906000", "145533.906000", "145535.906000", "145537.906000", "145539.906000", "145541.906000", "145543.906000", "145545.906000", "145547.906000", "145549.906000", "145551.906000", "145553.906000", "145555.906000", "145557.906000", "145559.906000", "145601.906000", "145603.906000", "145605.906000", "145607.906000", "145609.906000", "145611.906000", "145613.906000", "145615.906000", "145617.906000", "145619.906000", "145621.906000", "145623.906000", "145625.906000", "145627.906000", "145629.906000", "145631.906000", "145633.906000", "145635.906000", "145637.906000", "145639.906000", "145641.906000", "145643.906000", "145645.906000", "145647.906000", "145649.906000", "145651.906000", "145653.906000", "145655.906000", "145657.921000", "145659.906000", "145701.906000", "145703.906000", "145705.906000", "145707.906000", "145709.906000", "145711.906000", "145713.906000", "145715.906000", "145717.906000", "145719.906000", "145721.906000", "145723.906000", "145725.906000", "145727.906000", "145729.906000", "145731.906000", "145733.906000", "145735.906000", "145737.906000", "145739.906000", "145741.906000", "145743.906000", "145745.906000", "145747.906000", "145749.906000", "145751.906000", "145753.906000", "145755.906000", "145757.906000", "145759.906000", "145801.906000", "145803.906000", "145805.906000", "145807.906000", "145809.906000", "145811.906000", "145813.906000", "145815.906000", "145817.906000", "145819.906000", "145821.906000", "145823.906000", "145825.906000", "145827.906000", "145829.906000", "145831.906000", "145833.906000", "145835.906000", "145837.906000", "145839.906000", "145841.906000", "145843.906000", "145845.906000", "145847.906000", "145849.906000", "145851.906000", "145853.906000", "145855.906000", "145857.906000", "145859.906000", "145901.906000", "145903.906000", "145905.906000", "145907.906000", "145909.906000", "145911.906000", "145913.906000", "145915.906000", "145917.906000", "145919.906000", "145921.906000", "145923.906000", "145925.906000", "145927.906000", "145929.906000", "145931.906000", "145933.906000", "145935.906000", "145937.906000", "145939.906000", "145941.906000", "145943.906000", "145945.906000", "145947.906000", "145949.906000", "145951.906000", "145953.906000", "145955.906000", "145957.906000", "145959.921000", "150001.906000", "150003.921000", "150005.921000", "150007.906000", "150009.906000", "150011.906000", "150013.906000", "150015.906000", "150017.906000", "150019.515000"],
      "InstanceNumber": [1, 2, 3, 4, 5, 6, 7, 8, 9, 10, 11, 12, 13, 14, 15, 16, 17, 18, 19, 20, 21, 22, 23, 24, 25, 26, 27, 28, 29, 30, 31, 32, 33, 34, 35, 36, 37, 38, 39, 40, 41, 42, 43, 44, 45, 46, 47, 48, 49, 50, 51, 52, 53, 54, 55, 56, 57, 58, 59, 60, 61, 62, 63, 64, 65, 66, 67, 68, 69, 70, 71, 72, 73, 74, 75, 76, 77, 78, 79, 80, 81, 82, 83, 84, 85, 86, 87, 88, 89, 90, 91, 92, 93, 94, 95, 96, 97, 98, 99, 100, 101, 102, 103, 104, 105, 106, 107, 108, 109, 110, 111, 112, 113, 114, 115, 116, 117, 118, 119, 120, 121, 122, 123, 124, 125, 126, 127, 128, 129, 130, 131, 132, 133, 134, 135, 136, 137, 138, 139, 140, 141, 142, 143, 144, 145, 146, 147, 148, 149, 150, 151, 152, 153, 154, 155, 156, 157, 158, 159, 160, 161, 162, 163, 164, 165, 166, 167, 168, 169, 170, 171, 172, 173, 174, 175, 176, 177, 178, 179, 180, 181, 182, 183, 184, 185, 186, 187, 188, 189, 190, 191, 192, 193, 194, 195, 196, 197, 198, 199, 200, 201, 202, 203, 204, 205, 206, 207, 208, 209, 210, 211, 212, 213, 214, 215, 216, 217, 218, 219, 220, 221, 222, 223, 224, 225, 226, 227, 228, 229, 230, 231, 232, 233, 234, 235, 236, 237, 238, 239, 240, 241, 242, 243, 244, 245, 246, 247, 248, 249, 250, 251, 252, 253, 254, 255, 256, 257, 258, 259, 260, 261, 262, 263, 264, 265, 266, 267, 268, 269, 270, 271, 272, 273, 274, 275, 276, 277, 278, 279, 280, 281, 282, 283, 284, 285, 286, 287, 288, 289, 290, 291, 292, 293, 294, 295, 296, 297, 298, 299, 300],
      "LargestImagePixelValue": [1402, 1377, 1422, 1387, 1395, 1385, 1371, 1406, 1417, 1388, 1386, 1380, 1394, 1403, 1400, 1368, 1382, 1372, 1394, 1358, 1381, 1373, 1383, 1359, 1367, 1353, 1382, 1364, 1373, 1375, 1368, 1374, 1375, 1369, 1379, 1382, 1386, 1384, 1390, 1411, 1388, 1392, 1386, 1374, 1390, 1354, 1391, 1396, 1412, 1428, 1401, 1376, 1359, 1365, 1380, 1372, 1401, 1416, 1370, 1391, 1376, 1387, 1412, 1424, 1417, 1388, 1413, 1394, 1373, 1408, 1419, 1407, 1420, 1366, 1445, 1408, 1369, 1364, 1364, 1370, 1369, 1374, 1364, 1367, 1377, 1385, 1375, 1397, 1372, 1358, 1368, 1396, 1376, 1381, 1384, 1392, 1388, 1509, 1395, 1362, 1392, 1383, 1373, 1420, 1408, 1394, 1356, 1356, 1372, 1369, 1389, 1400, 1401, 1422, 1401, 1369, 1394, 1422, 1433, 1401, 1396, 1396, 1382, 1391, 1390, 1383, 1374, 1392, 1388, 1412, 1405, 1381, 1368, 1401, 1406, 1433, 1438, 1440, 1455, 1431, 1449, 1443, 1428, 1415, 1432, 1427, 1388, 1430, 1408, 1397, 1389, 1430, 1388, 1398, 1404, 1412, 1419, 1432, 1413, 1422, 1427, 1430, 1419, 1430, 1423, 1409, 1425, 1412, 1422, 1425, 1419, 1427, 1422, 1431, 1454, 1459, 1444, 1449, 1401, 1418, 1410, 1414, 1410, 1401, 1446, 1411, 1411, 1431, 1434, 1415, 1391, 1420, 1420, 1364, 1416, 1429, 1406, 1393, 1421, 1421, 1417, 1403, 1424, 1400, 1410, 1432, 1416, 1414, 1430, 1426, 1429, 1461, 1418, 1443, 1440, 1428, 1458, 1426, 1415, 1418, 1422, 1424, 1408, 1447, 1470, 1420, 1425, 1445, 1427, 1422, 1461, 1456, 1446, 1484, 1479, 1465, 1452, 1456, 1459, 1485, 1477, 1442, 1457, 1454, 1470, 1418, 1453, 1424, 1436, 1447, 1467, 1444, 1467, 1470, 1443, 1461, 1468, 1455, 1465, 1473, 1472, 1447, 1471, 1488, 1474, 1459, 1482, 1432, 1460, 1425, 1430, 1437, 1453, 1421, 1443, 1441, 1419, 1442, 1436, 1427, 1425, 1511, 1420, 1425, 1448, 1430, 1419, 1442, 1430, 1442, 1391, 1443, 1406, 1415, 1435, 1427, 1436, 1432, 1416, 1413],
      "WindowCenter": [625.0, 623.0, 625.0, 624.0, 623.0, 622.0, 622.0, 623.0, 624.0, 623.0, 623.0, 624.0, 624.0, 625.0, 625.0, 623.0, 624.0, 623.0, 625.0, 623.0, 623.0, 624.0, 624.0, 624.0, 624.0, 624.0, 625.0, 625.0, 625.0, 625.0, 624.0, 624.0, 625.0, 624.0, 625.0, 624.0, 625.0, 626.0, 628.0, 629.0, 627.0, 626.0, 625.0, 625.0, 625.0, 624.0, 625.0, 626.0, 627.0, 626.0, 626.0, 625.0, 623.0, 623.0, 625.0, 625.0, 626.0, 626.0, 625.0, 625.0, 624.0, 625.0, 627.0, 627.0, 626.0, 623.0, 624.0, 624.0, 624.0, 623.0, 624.0, 624.0, 625.0, 622.0, 628.0, 626.0, 622.0, 622.0, 622.0, 624.0, 623.0, 623.0, 623.0, 623.0, 625.0, 624.0, 624.0, 625.0, 624.0, 623.0, 622.0, 623.0, 623.0, 622.0, 622.0, 623.0, 623.0, 624.0, 623.0, 623.0, 625.0, 623.0, 622.0, 625.0, 625.0, 625.0, 624.0, 623.0, 624.0, 623.0, 625.0, 627.0, 626.0, 625.0, 624.0, 621.0, 623.0, 625.0, 626.0, 624.0, 624.0, 623.0, 624.0, 625.0, 625.0, 624.0, 623.0, 625.0, 625.0, 626.0, 626.0, 624.0, 623.0, 624.0, 625.0, 627.0, 625.0, 624.0, 624.0, 624.0, 624.0, 624.0, 624.0, 623.0, 625.0, 622.0, 622.0, 627.0, 624.0, 623.0, 621.0, 623.0, 623.0, 624.0, 624.0, 625.0, 625.0, 626.0, 626.0, 627.0, 625.0, 625.0, 624.0, 625.0, 624.0, 623.0, 624.0, 624.0, 624.0, 624.0, 625.0, 624.0, 625.0, 625.0, 627.0, 626.0, 625.0, 625.0, 624.0, 625.0, 626.0, 625.0, 626.0, 626.0, 626.0, 626.0, 625.0, 626.0, 625.0, 624.0, 624.0, 625.0, 626.0, 622.0, 625.0, 627.0, 625.0, 624.0, 625.0, 626.0, 626.0, 625.0, 625.0, 625.0, 624.0, 625.0, 625.0, 627.0, 626.0, 623.0, 623.0, 624.0, 624.0, 626.0, 625.0, 624.0, 625.0, 624.0, 625.0, 624.0, 624.0, 624.0, 625.0, 626.0, 627.0, 624.0, 625.0, 626.0, 625.0, 624.0, 627.0, 627.0, 626.0, 626.0, 625.0, 625.0, 626.0, 626.0, 626.0, 625.0, 626.0, 626.0, 627.0, 625.0, 625.0, 626.0, 626.0, 625.0, 627.0, 627.0, 628.0, 627.0, 627.0, 628.0, 627.0, 628.0, 628.0, 628.0, 627.0, 627.0, 627.0, 627.0, 627.0, 626.0, 627.0, 627.0, 628.0, 627.0, 627.0, 627.0, 627.0, 629.0, 629.0, 625.0, 626.0, 627.0, 627.0, 628.0, 629.0, 628.0, 627.0, 629.0, 626.0, 626.0, 627.0, 627.0, 626.0, 626.0, 627.0, 627.0, 622.0, 629.0, 628.0, 628.0, 628.0, 628.0, 630.0, 629.0, 629.0, 629.0],
      "WindowWidth": [1326.0, 1323.0, 1326.0, 1324.0, 1324.0, 1320.0, 1320.0, 1322.0, 1324.0, 1322.0, 1322.0, 1324.0, 1326.0, 1328.0, 1328.0, 1324.0, 1325.0, 1323.0, 1326.0, 1324.0, 1324.0, 1325.0, 1326.0, 1326.0, 1325.0, 1325.0, 1327.0, 1328.0, 1328.0, 1328.0, 1325.0, 1325.0, 1326.0, 1326.0, 1327.0, 1326.0, 1327.0, 1330.0, 1335.0, 1337.0, 1331.0, 1329.0, 1327.0, 1326.0, 1327.0, 1325.0, 1328.0, 1330.0, 1331.0, 1330.0, 1329.0, 1328.0, 1323.0, 1323.0, 1327.0, 1327.0, 1329.0, 1330.0, 1326.0, 1326.0, 1325.0, 1327.0, 1332.0, 1332.0, 1328.0, 1322.0, 1323.0, 1324.0, 1324.0, 1323.0, 1325.0, 1326.0, 1326.0, 1321.0, 1333.0, 1329.0, 1321.0, 1320.0, 1322.0, 1325.0, 1324.0, 1324.0, 1323.0, 1324.0, 1326.0, 1326.0, 1326.0, 1327.0, 1325.0, 1322.0, 1320.0, 1323.0, 1322.0, 1321.0, 1321.0, 1323.0, 1322.0, 1325.0, 1321.0, 1323.0, 1326.0, 1322.0, 1321.0, 1326.0, 1327.0, 1327.0, 1325.0, 1324.0, 1324.0, 1322.0, 1328.0, 1331.0, 1330.0, 1326.0, 1323.0, 1318.0, 1323.0, 1326.0, 1328.0, 1325.0, 1324.0, 1323.0, 1325.0, 1327.0, 1326.0, 1323.0, 1323.0, 1327.0, 1328.0, 1330.0, 1328.0, 1325.0, 1323.0, 1325.0, 1327.0, 1331.0, 1327.0, 1325.0, 1324.0, 1323.0, 1324.0, 1325.0, 1323.0, 1323.0, 1325.0, 1320.0, 1320.0, 1331.0, 1325.0, 1322.0, 1319.0, 1323.0, 1323.0, 1325.0, 1325.0, 1327.0, 1327.0, 1328.0, 1329.0, 1330.0, 1328.0, 1325.0, 1325.0, 1327.0, 1325.0, 1324.0, 1325.0, 1325.0, 1324.0, 1325.0, 1325.0, 1325.0, 1325.0, 1328.0, 1331.0, 1329.0, 1326.0, 1326.0, 1325.0, 1327.0, 1329.0, 1328.0, 1329.0, 1329.0, 1329.0, 1328.0, 1327.0, 1328.0, 1326.0, 1324.0, 1325.0, 1327.0, 1329.0, 1320.0, 1327.0, 1331.0, 1327.0, 1325.0, 1326.0, 1328.0, 1330.0, 1327.0, 1328.0, 1326.0, 1325.0, 1327.0, 1326.0, 1332.0, 1328.0, 1323.0, 1321.0, 1325.0, 1325.0, 1328.0, 1327.0, 1324.0, 1326.0, 1325.0, 1326.0, 1325.0, 1325.0, 1325.0, 1327.0, 1329.0, 1329.0, 1325.0, 1326.0, 1328.0, 1326.0, 1324.0, 1330.0, 1332.0, 1328.0, 1328.0, 1325.0, 1326.0, 1328.0, 1328.0, 1328.0, 1327.0, 1328.0, 1329.0, 1331.0, 1326.0, 1326.0, 1329.0, 1328.0, 1328.0, 1331.0, 1332.0, 1332.0, 1332.0, 1331.0, 1333.0, 1331.0, 1334.0, 1334.0, 1333.0, 1331.0, 1331.0, 1332.0, 1331.0, 1331.0, 1329.0, 1331.0, 1331.0, 1333.0, 1331.0, 1332.0, 1331.0, 1333.0, 1336.0, 1335.0, 1326.0, 1329.0, 1331.0, 1332.0, 1333.0, 1336.0, 1334.0, 1332.0, 1336.0, 1330.0, 1330.0, 1331.0, 1331.0, 1330.0, 1330.0, 1331.0, 1332.0, 1320.0, 1336.0, 1334.0, 1333.0, 1333.0, 1335.0, 1338.0, 1337.0, 1335.0, 1335.0]
    },
