{
  "AcquisitionMatrixPE": 64,
  "AcquisitionNumber": 1,
  "AcquisitionTime": "15:14:20.752500",
  "BandwidthPerPixelPhaseEncode": 31.25,
  "BaseResolution": 64,
  "CoilCombinationMethod": "Sum of Squares",
  "CoilString": "C:HEA;HEP",
  "ConversionSoftware": "dcm2niix",
  "ConversionSoftwareVersion": "v1.0.20211006",
  "DerivedVendorReportedEchoSpacing": 0.0005,
  "DeviceSerialNumber": "35377",
  "DwellTime": 3.4e-06,
  "EchoTime": 0.03,
  "EffectiveEchoSpacing": 0.0005,
  "FlipAngle": 90,
  "ImageOrientationPatientDICOM": [0.998256, 0.0121304, 0.0577769, -0.0156818, 0.997989, 0.0614166],
  "ImageOrientationText": "Tra>Cor(3.6)>Sag(3.3)",
  "ImageType": [
    "ORIGINAL",
    "PRIMARY",
    "M",
    "ND",
    "MOSAIC"
],
  "ImagingFrequency": 123.256,
  "InPlanePhaseEncodingDirectionDICOM": "COL",
  "InstitutionAddress": "Azinhaga Santa Comba StreetNo,Coimbra,District,PT,3000",
  "InstitutionName": "IBILI",
  "InstitutionalDepartmentName": "Department",
  "MRAcquisitionType": "2D",
  "MagneticFieldStrength": 3,
  "Manufacturer": "Siemens",
  "ManufacturersModelName": "TrioTim",
  "MatrixCoilMode": "SENSE",
  "Modality": "MR",
  "PartialFourier": 1,
  "PatientPosition": "HFS",
  "PercentPhaseFOV": 100,
  "PercentSampling": 100,
  "PhaseEncodingDirection": "j-",
  "PhaseEncodingSteps": 64,
  "PhaseResolution": 1,
  "PixelBandwidth": 2298,
  "ProcedureStepDescription": "Unknown",
  "ProtocolName": "rtfmri_neurofeedback_AvatarNofeedback",
  "PulseSequenceDetails": "%SiemensSeq%\\ep2d_bold",
  "ReceiveCoilName": "HeadMatrix",
  "ReconMatrixPE": 64,
  "RepetitionTime": 2,
  "SAR": 0.140191,
  "ScanOptions": "FS",
  "ScanningSequence": "EP",
  "SequenceName": "*epfid2d1_64",
  "SequenceVariant": "SK",
  "SeriesDescription": "rtfmri_neurofeedback_AvatarNofeedback",
  "SeriesNumber": 7,
  "ShimSetting": [15858, 7507, 21367, 546, 196, -642, 137, -15],
  "SliceThickness": 3,
  "SliceTiming": [0, 1.035, 0.0625, 1.095, 0.1225, 1.1575, 0.1825, 1.2175, 0.245, 1.2775, 0.305, 1.34, 0.365, 1.4, 0.4275, 1.46, 0.4875, 1.5225, 0.5475, 1.5825, 0.61, 1.6425, 0.67, 1.705, 0.73, 1.765, 0.7925, 1.825, 0.8525, 1.8875, 0.9125, 1.9475, 0.975],
  "SoftwareVersions": "syngo MR B17",
  "SpacingBetweenSlices": 3,
  "StationName": "MRC35377",
  "TaskName": "nofeedback",
  "TotalReadoutTime": 0.0315,
  "TxRefAmp": 362.122,
  "dcmmeta_affine": [
    [-3.99302339553833, -0.0627271980047226, 0.17074698209762573, 129.06112670898438],
    [-0.04852154478430748, 3.9919559955596924, 0.1866464465856552, -86.40364074707031],
    [0.2311074137687683, -0.2456662356853485, 2.9893157482147217, -47.855594635009766],
    [0.0, 0.0, 0.0, 1.0]
],
  "dcmmeta_reorient_transform": [
    [0.0, -1.0, 0.0, 63.0],
    [1.0, 0.0, 0.0, 0.0],
    [0.0, 0.0, 1.0, 0.0],
    [0.0, 0.0, 0.0, 1.0]
],
  "dcmmeta_shape": [64, 64, 33, 300],
  "dcmmeta_slice_dim": 2,
  "dcmmeta_version": 0.6,
  "global": {
    "const": {
      "AccessionNumber": "GMR20150205-0811",
      "AcquisitionMatrix": [64, 0, 0, 64],
      "Allergies": "MEDALERGIESL",
      "AngioFlag": "N",
      "BitsAllocated": 16,
      "BitsStored": 12,
      "Columns": 384,
      "EchoNumbers": 1,
      "EchoTime": 30.0,
      "EchoTrainLength": 1,
      "FlipAngle": 90.0,
      "HighBit": 11,
      "ImageOrientationPatient": [0.99825582340261, 0.01213038576505, 0.05777685335821, -0.0156817990985, 0.9979890217921, 0.06141655769803],
      "ImagePositionPatient": [-753.95669584607, -811.56601271263, -139.61634916995],
      "ImageType": [
        "ORIGINAL",
        "PRIMARY",
        "M",
        "ND",
        "MOSAIC"
],
      "ImagedNucleus": "1H",
      "ImagingFrequency": 123.255614,
      "InPlanePhaseEncodingDirection": "COL",
      "MRAcquisitionType": "2D",
      "MagneticFieldStrength": 3.0,
      "Manufacturer": "SIEMENS",
      "ManufacturerModelName": "TrioTim",
      "MedicalAlerts": "MEDALERTS",
      "Modality": "MR",
      "NumberOfAverages": 1.0,
      "NumberOfPhaseEncodingSteps": 64,
      "PercentPhaseFieldOfView": 100.0,
      "PercentSampling": 100.0,
      "PerformedProcedureStepStartTime": "141836.796000",
      "PhotometricInterpretation": "MONOCHROME2",
      "PixelBandwidth": 2298.0,
      "PixelRepresentation": 0,
      "PixelSpacing": [4.0, 4.0],
      "ProtocolName": "rtfmri_neurofeedback_AvatarNofeedback",
      "RepetitionTime": 2000.0,
      "RequestAttributesSequence": [
        {
          "RequestedProcedureID": "75341749-af4e-40",
          "ScheduledProcedureStepDescription": "Unknown",
          "ScheduledProcedureStepID": "75341749-af4e-40"
        }
],
      "Rows": 384,
      "SAR": 0.14019078595899,
      "SamplesPerPixel": 1,
      "ScanOptions": "FS",
      "ScanningSequence": "EP",
      "SequenceName": "*epfid2d1_64",
      "SequenceVariant": "SK",
      "SeriesDescription": "rtfmri_neurofeedback_AvatarNofeedback",
      "SeriesNumber": 7,
      "SeriesTime": "151424.515000",
      "SliceLocation": -45.715204341405,
      "SliceThickness": 3.0,
      "SmallestImagePixelValue": 0,
      "SoftwareVersions": "syngo MR B17",
      "SpacingBetweenSlices": 3.0000000118195,
      "SpecificCharacterSet": "ISO_IR 100",
      "StudyID": "75341749-af4e-40",
      "StudyTime": "141836.734000",
      "TransmitCoilName": "Body",
      "VariableFlipAngleFlag": "N",
      "WindowCenterWidthExplanation": "Algo1",
      "dBdt": 0.0},
    "slices": {}
  },
  "time": {
    "samples": {
      "AcquisitionNumber": [1, 2, 3, 4, 5, 6, 7, 8, 9, 10, 11, 12, 13, 14, 15, 16, 17, 18, 19, 20, 21, 22, 23, 24, 25, 26, 27, 28, 29, 30, 31, 32, 33, 34, 35, 36, 37, 38, 39, 40, 41, 42, 43, 44, 45, 46, 47, 48, 49, 50, 51, 52, 53, 54, 55, 56, 57, 58, 59, 60, 61, 62, 63, 64, 65, 66, 67, 68, 69, 70, 71, 72, 73, 74, 75, 76, 77, 78, 79, 80, 81, 82, 83, 84, 85, 86, 87, 88, 89, 90, 91, 92, 93, 94, 95, 96, 97, 98, 99, 100, 101, 102, 103, 104, 105, 106, 107, 108, 109, 110, 111, 112, 113, 114, 115, 116, 117, 118, 119, 120, 121, 122, 123, 124, 125, 126, 127, 128, 129, 130, 131, 132, 133, 134, 135, 136, 137, 138, 139, 140, 141, 142, 143, 144, 145, 146, 147, 148, 149, 150, 151, 152, 153, 154, 155, 156, 157, 158, 159, 160, 161, 162, 163, 164, 165, 166, 167, 168, 169, 170, 171, 172, 173, 174, 175, 176, 177, 178, 179, 180, 181, 182, 183, 184, 185, 186, 187, 188, 189, 190, 191, 192, 193, 194, 195, 196, 197, 198, 199, 200, 201, 202, 203, 204, 205, 206, 207, 208, 209, 210, 211, 212, 213, 214, 215, 216, 217, 218, 219, 220, 221, 222, 223, 224, 225, 226, 227, 228, 229, 230, 231, 232, 233, 234, 235, 236, 237, 238, 239, 240, 241, 242, 243, 244, 245, 246, 247, 248, 249, 250, 251, 252, 253, 254, 255, 256, 257, 258, 259, 260, 261, 262, 263, 264, 265, 266, 267, 268, 269, 270, 271, 272, 273, 274, 275, 276, 277, 278, 279, 280, 281, 282, 283, 284, 285, 286, 287, 288, 289, 290, 291, 292, 293, 294, 295, 296, 297, 298, 299, 300],
      "AcquisitionTime": ["151420.752500", "151422.762500", "151424.770000", "151426.777500", "151428.785000", "151430.795000", "151432.802500", "151434.810000", "151436.817500", "151438.825000", "151440.835000", "151442.842500", "151444.850000", "151446.857500", "151448.865000", "151450.875000", "151452.882500", "151454.890000", "151456.897500", "151458.907500", "151500.915000", "151502.922500", "151504.930000", "151506.937500", "151508.947500", "151510.955000", "151512.962500", "151514.970000", "151516.977500", "151518.987500", "151520.995000", "151523.002500", "151525.010000", "151527.017500", "151529.027500", "151531.035000", "151533.042500", "151535.050000", "151537.060000", "151539.067500", "151541.075000", "151543.082500", "151545.090000", "151547.100000", "151549.107500", "151551.115000", "151553.122500", "151555.130000", "151557.140000", "151559.147500", "151601.155000", "151603.162500", "151605.172500", "151607.180000", "151609.187500", "151611.195000", "151613.202500", "151615.212500", "151617.220000", "151619.227500", "151621.235000", "151623.242500", "151625.252500", "151627.260000", "151629.267500", "151631.275000", "151633.285000", "151635.292500", "151637.300000", "151639.307500", "151641.315000", "151643.325000", "151645.332500", "151647.340000", "151649.347500", "151651.355000", "151653.365000", "151655.372500", "151657.380000", "151659.387500", "151701.395000", "151703.405000", "151705.412500", "151707.420000", "151709.427500", "151711.437500", "151713.445000", "151715.452500", "151717.460000", "151719.467500", "151721.477500", "151723.485000", "151725.492500", "151727.500000", "151729.507500", "151731.517500", "151733.525000", "151735.532500", "151737.540000", "151739.550000", "151741.557500", "151743.565000", "151745.572500", "151747.580000", "151749.590000", "151751.597500", "151753.605000", "151755.612500", "151757.620000", "151759.630000", "151801.637500", "151803.645000", "151805.652500", "151807.662500", "151809.670000", "151811.677500", "151813.685000", "151815.692500", "151817.702500", "151819.710000", "151821.717500", "151823.725000", "151825.732500", "151827.742500", "151829.750000", "151831.757500", "151833.765000", "151835.772500", "151837.782500", "151839.790000", "151841.797500", "151843.805000", "151845.815000", "151847.822500", "151849.830000", "151851.837500", "151853.845000", "151855.855000", "151857.862500", "151859.870000", "151901.877500", "151903.885000", "151905.895000", "151907.902500", "151909.910000", "151911.917500", "151913.927500", "151915.935000", "151917.942500", "151919.950000", "151921.957500", "151923.967500", "151925.975000", "151927.982500", "151929.990000", "151931.997500", "151934.007500", "151936.015000", "151938.022500", "151940.030000", "151942.040000", "151944.047500", "151946.055000", "151948.062500", "151950.070000", "151952.080000", "151954.087500", "151956.095000", "151958.102500", "152000.110000", "152002.120000", "152004.127500", "152006.135000", "152008.142500", "152010.150000", "152012.160000", "152014.167500", "152016.175000", "152018.182500", "152020.192500", "152022.200000", "152024.207500", "152026.215000", "152028.222500", "152030.232500", "152032.240000", "152034.247500", "152036.255000", "152038.262500", "152040.272500", "152042.280000", "152044.287500", "152046.295000", "152048.305000", "152050.312500", "152052.320000", "152054.327500", "152056.335000", "152058.345000", "152100.352500", "152102.360000", "152104.367500", "152106.375000", "152108.385000", "152110.392500", "152112.400000", "152114.407500", "152116.417500", "152118.425000", "152120.432500", "152122.440000", "152124.447500", "152126.457500", "152128.465000", "152130.472500", "152132.480000", "152134.487500", "152136.497500", "152138.505000", "152140.512500", "152142.520000", "152144.530000", "152146.537500", "152148.545000", "152150.552500", "152152.560000", "152154.570000", "152156.577500", "152158.585000", "152200.592500", "152202.600000", "152204.610000", "152206.617500", "152208.625000", "152210.632500", "152212.640000", "152214.650000", "152216.657500", "152218.665000", "152220.672500", "152222.682500", "152224.690000", "152226.697500", "152228.705000", "152230.712500", "152232.722500", "152234.730000", "152236.737500", "152238.745000", "152240.752500", "152242.762500", "152244.770000", "152246.777500", "152248.785000", "152250.795000", "152252.802500", "152254.810000", "152256.817500", "152258.825000", "152300.835000", "152302.842500", "152304.850000", "152306.857500", "152308.865000", "152310.875000", "152312.882500", "152314.890000", "152316.897500", "152318.907500", "152320.915000", "152322.922500", "152324.930000", "152326.937500", "152328.947500", "152330.955000", "152332.962500", "152334.970000", "152336.977500", "152338.987500", "152340.995000", "152343.002500", "152345.010000", "152347.017500", "152349.027500", "152351.035000", "152353.042500", "152355.050000", "152357.060000", "152359.067500", "152401.075000", "152403.082500", "152405.090000", "152407.100000", "152409.107500", "152411.115000", "152413.122500", "152415.130000", "152417.140000", "152419.147500", "152421.155000"],
      "ContentTime": ["151424.515000", "151426.515000", "151428.515000", "151430.515000", "151432.515000", "151434.515000", "151436.515000", "151438.515000", "151440.515000", "151442.515000", "151444.515000", "151446.515000", "151448.515000", "151450.515000", "151452.515000", "151454.515000", "151456.515000", "151458.515000", "151500.515000", "151502.515000", "151504.515000", "151506.515000", "151508.515000", "151510.515000", "151512.515000", "151514.515000", "151516.515000", "151518.515000", "151520.515000", "151522.515000", "151524.515000", "151526.515000", "151528.515000", "151530.515000", "151532.515000", "151534.515000", "151536.515000", "151538.515000", "151540.515000", "151542.515000", "151544.515000", "151546.515000", "151548.515000", "151550.515000", "151552.515000", "151554.515000", "151556.515000", "151558.515000", "151600.515000", "151602.515000", "151604.515000", "151606.515000", "151608.515000", "151610.515000", "151612.515000", "151614.515000", "151616.515000", "151618.515000", "151620.515000", "151622.515000", "151624.515000", "151626.515000", "151628.515000", "151630.515000", "151632.515000", "151634.515000", "151636.515000", "151638.515000", "151640.515000", "151642.515000", "151644.515000", "151646.515000", "151648.515000", "151650.515000", "151652.515000", "151654.515000", "151656.515000", "151658.515000", "151700.515000", "151702.515000", "151704.515000", "151706.515000", "151708.515000", "151710.515000", "151712.515000", "151714.515000", "151716.515000", "151718.515000", "151720.515000", "151722.515000", "151724.515000", "151726.515000", "151728.515000", "151730.515000", "151732.515000", "151734.515000", "151736.515000", "151738.515000", "151740.515000", "151742.515000", "151744.515000", "151746.515000", "151748.515000", "151750.515000", "151752.515000", "151754.515000", "151756.515000", "151758.515000", "151800.515000", "151802.515000", "151804.515000", "151806.515000", "151808.515000", "151810.515000", "151812.515000", "151814.515000", "151816.515000", "151818.515000", "151820.515000", "151822.515000", "151824.515000", "151826.515000", "151828.515000", "151830.515000", "151832.515000", "151834.515000", "151836.515000", "151838.515000", "151840.515000", "151842.515000", "151844.515000", "151846.515000", "151848.515000", "151850.515000", "151852.515000", "151854.515000", "151856.515000", "151858.515000", "151900.515000", "151902.515000", "151904.515000", "151906.515000", "151908.515000", "151910.515000", "151912.515000", "151914.515000", "151916.515000", "151918.515000", "151920.515000", "151922.515000", "151924.515000", "151926.515000", "151928.515000", "151930.515000", "151932.515000", "151934.515000", "151936.515000", "151938.515000", "151940.515000", "151942.515000", "151944.515000", "151946.515000", "151948.515000", "151950.515000", "151952.515000", "151954.515000", "151956.515000", "151958.515000", "152000.515000", "152002.515000", "152004.515000", "152006.515000", "152008.515000", "152010.515000", "152012.515000", "152014.515000", "152016.515000", "152018.515000", "152020.515000", "152022.515000", "152024.515000", "152026.515000", "152028.515000", "152030.515000", "152032.515000", "152034.515000", "152036.515000", "152038.515000", "152040.515000", "152042.515000", "152044.515000", "152046.515000", "152048.515000", "152050.515000", "152052.515000", "152054.515000", "152056.515000", "152058.515000", "152100.515000", "152102.515000", "152104.515000", "152106.515000", "152108.515000", "152110.515000", "152112.515000", "152114.515000", "152116.515000", "152118.515000", "152120.515000", "152122.515000", "152124.515000", "152126.515000", "152128.515000", "152130.515000", "152132.515000", "152134.515000", "152136.515000", "152138.515000", "152140.515000", "152142.515000", "152144.515000", "152146.515000", "152148.515000", "152150.515000", "152152.515000", "152154.515000", "152156.515000", "152158.515000", "152200.515000", "152202.515000", "152204.515000", "152206.515000", "152208.515000", "152210.515000", "152212.515000", "152214.515000", "152216.515000", "152218.515000", "152220.515000", "152222.515000", "152224.515000", "152226.515000", "152228.515000", "152230.515000", "152232.515000", "152234.515000", "152236.515000", "152238.515000", "152240.515000", "152242.515000", "152244.515000", "152246.515000", "152248.515000", "152250.515000", "152252.515000", "152254.515000", "152256.515000", "152258.515000", "152300.515000", "152302.515000", "152304.515000", "152306.515000", "152308.515000", "152310.515000", "152312.515000", "152314.515000", "152316.515000", "152318.515000", "152320.515000", "152322.515000", "152324.515000", "152326.515000", "152328.515000", "152330.515000", "152332.515000", "152334.515000", "152336.515000", "152338.515000", "152340.515000", "152342.515000", "152344.515000", "152346.515000", "152348.515000", "152350.515000", "152352.515000", "152354.515000", "152356.515000", "152358.515000", "152400.515000", "152402.515000", "152404.515000", "152406.515000", "152408.515000", "152410.515000", "152412.515000", "152414.515000", "152416.515000", "152418.515000", "152420.515000", "152422.125000"],
      "InstanceCreationTime": ["151424.515000", "151426.515000", "151428.515000", "151430.515000", "151432.515000", "151434.515000", "151436.515000", "151438.515000", "151440.515000", "151442.515000", "151444.515000", "151446.515000", "151448.515000", "151450.515000", "151452.515000", "151454.515000", "151456.515000", "151458.515000", "151500.515000", "151502.515000", "151504.515000", "151506.515000", "151508.515000", "151510.515000", "151512.515000", "151514.515000", "151516.515000", "151518.515000", "151520.515000", "151522.515000", "151524.515000", "151526.515000", "151528.515000", "151530.515000", "151532.515000", "151534.515000", "151536.515000", "151538.515000", "151540.515000", "151542.515000", "151544.515000", "151546.515000", "151548.515000", "151550.515000", "151552.515000", "151554.515000", "151556.515000", "151558.515000", "151600.515000", "151602.515000", "151604.515000", "151606.515000", "151608.515000", "151610.515000", "151612.515000", "151614.515000", "151616.515000", "151618.515000", "151620.515000", "151622.515000", "151624.515000", "151626.515000", "151628.515000", "151630.515000", "151632.515000", "151634.515000", "151636.515000", "151638.515000", "151640.515000", "151642.515000", "151644.515000", "151646.515000", "151648.515000", "151650.515000", "151652.515000", "151654.515000", "151656.515000", "151658.515000", "151700.515000", "151702.515000", "151704.515000", "151706.515000", "151708.515000", "151710.515000", "151712.515000", "151714.515000", "151716.515000", "151718.515000", "151720.515000", "151722.515000", "151724.515000", "151726.515000", "151728.515000", "151730.515000", "151732.515000", "151734.515000", "151736.515000", "151738.515000", "151740.515000", "151742.515000", "151744.515000", "151746.515000", "151748.515000", "151750.515000", "151752.515000", "151754.515000", "151756.515000", "151758.515000", "151800.515000", "151802.515000", "151804.515000", "151806.515000", "151808.515000", "151810.515000", "151812.515000", "151814.515000", "151816.515000", "151818.515000", "151820.515000", "151822.515000", "151824.515000", "151826.515000", "151828.515000", "151830.515000", "151832.515000", "151834.515000", "151836.515000", "151838.515000", "151840.515000", "151842.515000", "151844.515000", "151846.515000", "151848.515000", "151850.515000", "151852.515000", "151854.515000", "151856.515000", "151858.515000", "151900.515000", "151902.515000", "151904.515000", "151906.515000", "151908.515000", "151910.515000", "151912.515000", "151914.515000", "151916.515000", "151918.515000", "151920.515000", "151922.515000", "151924.515000", "151926.515000", "151928.515000", "151930.515000", "151932.515000", "151934.515000", "151936.515000", "151938.515000", "151940.515000", "151942.515000", "151944.515000", "151946.515000", "151948.515000", "151950.515000", "151952.515000", "151954.515000", "151956.515000", "151958.515000", "152000.515000", "152002.515000", "152004.515000", "152006.515000", "152008.515000", "152010.515000", "152012.515000", "152014.515000", "152016.515000", "152018.515000", "152020.515000", "152022.515000", "152024.515000", "152026.515000", "152028.515000", "152030.515000", "152032.515000", "152034.515000", "152036.515000", "152038.515000", "152040.515000", "152042.515000", "152044.515000", "152046.515000", "152048.515000", "152050.515000", "152052.515000", "152054.515000", "152056.515000", "152058.515000", "152100.515000", "152102.515000", "152104.515000", "152106.515000", "152108.515000", "152110.515000", "152112.515000", "152114.515000", "152116.515000", "152118.515000", "152120.515000", "152122.515000", "152124.515000", "152126.515000", "152128.515000", "152130.515000", "152132.515000", "152134.515000", "152136.515000", "152138.515000", "152140.515000", "152142.515000", "152144.515000", "152146.515000", "152148.515000", "152150.515000", "152152.515000", "152154.515000", "152156.515000", "152158.515000", "152200.515000", "152202.515000", "152204.515000", "152206.515000", "152208.515000", "152210.515000", "152212.515000", "152214.515000", "152216.515000", "152218.515000", "152220.515000", "152222.515000", "152224.515000", "152226.515000", "152228.515000", "152230.515000", "152232.515000", "152234.515000", "152236.515000", "152238.515000", "152240.515000", "152242.515000", "152244.515000", "152246.515000", "152248.515000", "152250.515000", "152252.515000", "152254.515000", "152256.515000", "152258.515000", "152300.515000", "152302.515000", "152304.515000", "152306.515000", "152308.515000", "152310.515000", "152312.515000", "152314.515000", "152316.515000", "152318.515000", "152320.515000", "152322.515000", "152324.515000", "152326.515000", "152328.515000", "152330.515000", "152332.515000", "152334.515000", "152336.515000", "152338.515000", "152340.515000", "152342.515000", "152344.515000", "152346.515000", "152348.515000", "152350.515000", "152352.515000", "152354.515000", "152356.515000", "152358.515000", "152400.515000", "152402.515000", "152404.515000", "152406.515000", "152408.515000", "152410.515000", "152412.515000", "152414.515000", "152416.515000", "152418.515000", "152420.515000", "152422.125000"],
      "InstanceNumber": [1, 2, 3, 4, 5, 6, 7, 8, 9, 10, 11, 12, 13, 14, 15, 16, 17, 18, 19, 20, 21, 22, 23, 24, 25, 26, 27, 28, 29, 30, 31, 32, 33, 34, 35, 36, 37, 38, 39, 40, 41, 42, 43, 44, 45, 46, 47, 48, 49, 50, 51, 52, 53, 54, 55, 56, 57, 58, 59, 60, 61, 62, 63, 64, 65, 66, 67, 68, 69, 70, 71, 72, 73, 74, 75, 76, 77, 78, 79, 80, 81, 82, 83, 84, 85, 86, 87, 88, 89, 90, 91, 92, 93, 94, 95, 96, 97, 98, 99, 100, 101, 102, 103, 104, 105, 106, 107, 108, 109, 110, 111, 112, 113, 114, 115, 116, 117, 118, 119, 120, 121, 122, 123, 124, 125, 126, 127, 128, 129, 130, 131, 132, 133, 134, 135, 136, 137, 138, 139, 140, 141, 142, 143, 144, 145, 146, 147, 148, 149, 150, 151, 152, 153, 154, 155, 156, 157, 158, 159, 160, 161, 162, 163, 164, 165, 166, 167, 168, 169, 170, 171, 172, 173, 174, 175, 176, 177, 178, 179, 180, 181, 182, 183, 184, 185, 186, 187, 188, 189, 190, 191, 192, 193, 194, 195, 196, 197, 198, 199, 200, 201, 202, 203, 204, 205, 206, 207, 208, 209, 210, 211, 212, 213, 214, 215, 216, 217, 218, 219, 220, 221, 222, 223, 224, 225, 226, 227, 228, 229, 230, 231, 232, 233, 234, 235, 236, 237, 238, 239, 240, 241, 242, 243, 244, 245, 246, 247, 248, 249, 250, 251, 252, 253, 254, 255, 256, 257, 258, 259, 260, 261, 262, 263, 264, 265, 266, 267, 268, 269, 270, 271, 272, 273, 274, 275, 276, 277, 278, 279, 280, 281, 282, 283, 284, 285, 286, 287, 288, 289, 290, 291, 292, 293, 294, 295, 296, 297, 298, 299, 300],
      "LargestImagePixelValue": [1414, 1372, 1387, 1375, 1413, 1424, 1462, 1404, 1377, 1369, 1363, 1389, 1370, 1392, 1407, 1404, 1422, 1381, 1380, 1389, 1408, 1367, 1363, 1370, 1346, 1334, 1379, 1366, 1391, 1370, 1367, 1383, 1390, 1398, 1392, 1381, 1373, 1421, 1410, 1417, 1416, 1413, 1434, 1406, 1377, 1377, 1332, 1416, 1390, 1388, 1399, 1385, 1383, 1396, 1389, 1383, 1383, 1374, 1366, 1355, 1380, 1378, 1382, 1367, 1400, 1405, 1383, 1408, 1446, 1387, 1385, 1410, 1359, 1438, 1732, 1388, 1402, 1421, 1430, 1396, 1409, 1450, 1414, 1417, 1450, 1419, 1431, 1420, 1422, 1436, 1407, 1412, 1416, 1427, 1348, 1420, 1407, 1400, 1371, 1433, 1363, 1350, 1370, 1432, 1376, 1431, 1378, 1375, 1355, 1389, 1383, 1437, 1358, 1404, 1417, 1421, 1412, 1430, 1403, 1409, 1405, 1382, 1449, 1393, 1400, 1394, 1409, 1431, 1401, 1395, 1398, 1414, 1416, 1396, 1387, 1410, 1429, 1399, 1407, 1377, 1405, 1374, 1406, 1407, 1428, 1403, 1400, 1403, 1405, 1411, 1426, 1392, 1399, 1424, 1421, 1412, 1396, 1423, 1392, 1389, 1400, 1405, 1412, 1424, 1423, 1423, 1403, 1408, 1382, 1407, 1397, 1393, 1405, 1394, 1410, 1388, 1427, 1440, 1418, 1404, 1420, 1390, 1397, 1407, 1400, 1414, 1419, 1448, 1436, 1440, 1426, 1410, 1441, 1429, 1411, 1451, 1421, 1446, 1409, 1429, 1410, 1395, 1436, 1408, 1396, 1414, 1402, 1394, 1405, 1419, 1384, 1374, 1427, 1424, 1420, 1430, 1426, 1403, 1412, 1396, 1418, 1401, 1411, 1442, 1419, 1418, 1439, 1404, 1395, 1404, 1414, 1409, 1423, 1392, 1435, 1397, 1464, 1435, 1423, 1430, 1452, 1409, 1408, 1399, 1409, 1455, 1427, 1424, 1454, 1406, 1400, 1408, 1429, 1453, 1398, 1412, 1385, 1418, 1418, 1434, 1428, 1422, 1450, 1434, 1411, 1411, 1391, 1407, 1434, 1418, 1404, 1414, 1420, 1406, 1435, 1411, 1425, 1395, 1456, 1403, 1402, 1377, 1419, 1400, 1425, 1417, 1392, 1391, 1406, 1422, 1398, 1387, 1398, 1391, 1400, 1415, 1395, 1421, 1416, 1417],
      "WindowCenter": [626.0, 625.0, 625.0, 625.0, 625.0, 624.0, 627.0, 624.0, 623.0, 622.0, 622.0, 624.0, 624.0, 625.0, 625.0, 626.0, 626.0, 624.0, 624.0, 619.0, 625.0, 624.0, 624.0, 622.0, 620.0, 618.0, 622.0, 624.0, 624.0, 623.0, 623.0, 624.0, 626.0, 625.0, 624.0, 624.0, 624.0, 625.0, 625.0, 625.0, 625.0, 625.0, 626.0, 625.0, 623.0, 623.0, 613.0, 627.0, 625.0, 624.0, 624.0, 622.0, 623.0, 624.0, 622.0, 622.0, 622.0, 623.0, 623.0, 623.0, 623.0, 623.0, 624.0, 624.0, 625.0, 625.0, 624.0, 625.0, 623.0, 618.0, 625.0, 625.0, 620.0, 592.0, 624.0, 624.0, 624.0, 624.0, 626.0, 625.0, 624.0, 625.0, 625.0, 626.0, 626.0, 625.0, 625.0, 625.0, 626.0, 626.0, 624.0, 625.0, 625.0, 625.0, 619.0, 626.0, 624.0, 623.0, 619.0, 628.0, 623.0, 621.0, 622.0, 625.0, 623.0, 623.0, 619.0, 619.0, 618.0, 620.0, 621.0, 620.0, 618.0, 625.0, 624.0, 623.0, 623.0, 624.0, 624.0, 624.0, 623.0, 619.0, 629.0, 625.0, 624.0, 623.0, 624.0, 627.0, 626.0, 624.0, 624.0, 625.0, 627.0, 625.0, 623.0, 624.0, 625.0, 626.0, 625.0, 623.0, 622.0, 622.0, 623.0, 624.0, 625.0, 623.0, 623.0, 625.0, 624.0, 625.0, 625.0, 624.0, 624.0, 625.0, 625.0, 624.0, 625.0, 627.0, 625.0, 623.0, 624.0, 624.0, 626.0, 625.0, 625.0, 625.0, 624.0, 624.0, 625.0, 624.0, 623.0, 623.0, 625.0, 625.0, 623.0, 624.0, 625.0, 625.0, 623.0, 622.0, 621.0, 621.0, 621.0, 622.0, 622.0, 622.0, 623.0, 625.0, 626.0, 626.0, 624.0, 625.0, 626.0, 626.0, 626.0, 626.0, 625.0, 625.0, 625.0, 626.0, 625.0, 624.0, 627.0, 626.0, 625.0, 625.0, 625.0, 625.0, 624.0, 625.0, 624.0, 623.0, 623.0, 624.0, 626.0, 626.0, 625.0, 624.0, 625.0, 625.0, 626.0, 624.0, 624.0, 626.0, 626.0, 626.0, 626.0, 625.0, 625.0, 626.0, 625.0, 627.0, 627.0, 624.0, 623.0, 621.0, 625.0, 625.0, 624.0, 624.0, 624.0, 624.0, 625.0, 626.0, 625.0, 626.0, 626.0, 625.0, 628.0, 626.0, 625.0, 625.0, 626.0, 628.0, 625.0, 627.0, 625.0, 625.0, 626.0, 626.0, 626.0, 626.0, 627.0, 626.0, 626.0, 626.0, 626.0, 626.0, 626.0, 625.0, 625.0, 626.0, 625.0, 625.0, 627.0, 625.0, 625.0, 625.0, 629.0, 627.0, 626.0, 624.0, 625.0, 626.0, 627.0, 627.0, 626.0, 625.0, 625.0, 626.0, 626.0, 625.0, 625.0, 625.0, 625.0, 626.0, 627.0, 627.0, 627.0, 627.0],
