{
  "AcquisitionMatrixPE": 64,
  "AcquisitionNumber": 1,
  "AcquisitionTime": "12:02:30.752500",
  "BandwidthPerPixelPhaseEncode": 31.25,
  "BaseResolution": 64,
  "CoilCombinationMethod": "Sum of Squares",
  "CoilString": "C:HEA;HEP",
  "ConversionSoftware": "dcm2niix",
  "ConversionSoftwareVersion": "v1.0.20211006",
  "DerivedVendorReportedEchoSpacing": 0.0005,
  "DeviceSerialNumber": "35377",
  "DwellTime": 3.4e-06,
  "EchoTime": 0.03,
  "EffectiveEchoSpacing": 0.0005,
  "FlipAngle": 90,
  "ImageOrientationPatientDICOM": [0.998125, -0.0502415, -0.0349588, 0.0575515, 0.964802, 0.256602],
  "ImageOrientationText": "Tra>Cor(15.0)>Sag(-1.2)",
  "ImageType": [
    "ORIGINAL",
    "PRIMARY",
    "M",
    "ND",
    "MOSAIC"
],
  "ImagingFrequency": 123.256,
  "InPlanePhaseEncodingDirectionDICOM": "COL",
  "InstitutionAddress": "Azinhaga Santa Comba StreetNo,Coimbra,District,PT,3000",
  "InstitutionName": "IBILI",
  "InstitutionalDepartmentName": "Department",
  "MRAcquisitionType": "2D",
  "MagneticFieldStrength": 3,
  "Manufacturer": "Siemens",
  "ManufacturersModelName": "TrioTim",
  "MatrixCoilMode": "SENSE",
  "Modality": "MR",
  "PartialFourier": 1,
  "PatientPosition": "HFS",
  "PercentPhaseFOV": 100,
  "PercentSampling": 100,
  "PhaseEncodingDirection": "j-",
  "PhaseEncodingSteps": 64,
  "PhaseResolution": 1,
  "PixelBandwidth": 2298,
  "ProcedureStepDescription": "Unknown",
  "ProtocolName": "rtfmri_neurofeedback_AvatarAuditivo",
  "PulseSequenceDetails": "%SiemensSeq%\\ep2d_bold",
  "ReceiveCoilName": "HeadMatrix",
  "ReconMatrixPE": 64,
  "RepetitionTime": 2,
  "SAR": 0.154359,
  "ScanOptions": "FS",
  "ScanningSequence": "EP",
  "SequenceName": "*epfid2d1_64",
  "SequenceVariant": "SK",
  "SeriesDescription": "rtfmri_neurofeedback_AvatarAuditivo",
  "SeriesNumber": 5,
  "ShimSetting": [15814, 7385, 21391, 595, 285, -707, 219, 83],
  "SliceThickness": 3,
  "SliceTiming": [0, 1.0325, 0.06, 1.095, 0.12, 1.155, 0.1825, 1.215, 0.2425, 1.2775, 0.3025, 1.3375, 0.365, 1.3975, 0.425, 1.46, 0.485, 1.52, 0.5475, 1.58, 0.6075, 1.6425, 0.6675, 1.7025, 0.73, 1.7625, 0.79, 1.825, 0.85, 1.885, 0.9125, 1.945, 0.9725],
  "SoftwareVersions": "syngo MR B17",
  "SpacingBetweenSlices": 3,
  "StationName": "MRC35377",
  "TaskName": "auditoryfeedback",
  "TotalReadoutTime": 0.0315,
  "TxRefAmp": 349.461,
  "dcmmeta_affine": [
    [-3.9925003051757812, 0.2302059829235077, -0.06250888109207153, 134.79373168945312],
    [0.20096594095230103, 3.8592090606689453, 0.7743975520133972, -94.18177032470703],
    [-0.13983526825904846, -1.0264067649841309, 2.8976542949676514, -2.776134490966797],
    [0.0, 0.0, 0.0, 1.0]
],
  "dcmmeta_reorient_transform": [
    [0.0, -1.0, 0.0, 63.0],
    [1.0, 0.0, 0.0, 0.0],
    [0.0, 0.0, 1.0, 0.0],
    [0.0, 0.0, 0.0, 1.0]
],
  "dcmmeta_shape": [64, 64, 33, 300],
  "dcmmeta_slice_dim": 2,
  "dcmmeta_version": 0.6,
  "global": {
    "const": {
      "AccessionNumber": "PAS20150305-0034",
      "AcquisitionMatrix": [64, 0, 0, 64],
      "Allergies": "MEDALERGIESL",
      "AngioFlag": "N",
      "BitsAllocated": 16,
      "BitsStored": 12,
      "Columns": 384,
      "EchoNumbers": 1,
      "EchoTime": 30.0,
      "EchoTrainLength": 1,
      "FlipAngle": 90.0,
      "HighBit": 11,
      "ImageOrientationPatient": [0.99812507952821, -0.0502414853227, -0.0349588153313, 0.05755149422099, 0.96480225691362, 0.25660169634537],
      "ImagePositionPatient": [-824.92971838822, -734.26729515566, -209.2912058854],
      "ImageType": [
        "ORIGINAL",
        "PRIMARY",
        "M",
        "ND",
        "MOSAIC"
],
      "ImagedNucleus": "1H",
      "ImagingFrequency": 123.255595,
      "InPlanePhaseEncodingDirection": "COL",
      "MRAcquisitionType": "2D",
      "MagneticFieldStrength": 3.0,
      "Manufacturer": "SIEMENS",
      "ManufacturerModelName": "TrioTim",
      "MedicalAlerts": "MEDALERTS",
      "Modality": "MR",
      "NumberOfAverages": 1.0,
      "NumberOfPhaseEncodingSteps": 64,
      "PercentPhaseFieldOfView": 100.0,
      "PercentSampling": 100.0,
      "PerformedProcedureStepStartTime": "113258.859000",
      "PhotometricInterpretation": "MONOCHROME2",
      "PixelBandwidth": 2298.0,
      "PixelRepresentation": 0,
      "PixelSpacing": [4.0, 4.0],
      "ProtocolName": "rtfmri_neurofeedback_AvatarAuditivo",
      "RepetitionTime": 2000.0,
      "RequestAttributesSequence": [
        {
          "RequestedProcedureID": "5c434816-a9e5-4a",
          "ScheduledProcedureStepDescription": "Unknown",
          "ScheduledProcedureStepID": "5c434816-a9e5-4a"
        }
],
      "Rows": 384,
      "SAR": 0.15435906695833,
      "SamplesPerPixel": 1,
      "ScanOptions": "FS",
      "ScanningSequence": "EP",
      "SequenceName": "*epfid2d1_64",
      "SequenceVariant": "SK",
      "SeriesDescription": "rtfmri_neurofeedback_AvatarAuditivo",
      "SeriesNumber": 5,
      "SeriesTime": "120234.281000",
      "SliceLocation": -29.801405021225,
      "SliceThickness": 3.0,
      "SmallestImagePixelValue": 0,
      "SoftwareVersions": "syngo MR B17",
      "SpacingBetweenSlices": 3.0000000048422,
      "SpecificCharacterSet": "ISO_IR 100",
      "StudyID": "5c434816-a9e5-4a",
      "StudyTime": "113258.796000",
      "TransmitCoilName": "Body",
      "VariableFlipAngleFlag": "N",
      "WindowCenterWidthExplanation": "Algo1",
      "dBdt": 0.0},
    "slices": {}
  },
  "time": {
    "samples": {
      "AcquisitionNumber": [1, 2, 3, 4, 5, 6, 7, 8, 9, 10, 11, 12, 13, 14, 15, 16, 17, 18, 19, 20, 21, 22, 23, 24, 25, 26, 27, 28, 29, 30, 31, 32, 33, 34, 35, 36, 37, 38, 39, 40, 41, 42, 43, 44, 45, 46, 47, 48, 49, 50, 51, 52, 53, 54, 55, 56, 57, 58, 59, 60, 61, 62, 63, 64, 65, 66, 67, 68, 69, 70, 71, 72, 73, 74, 75, 76, 77, 78, 79, 80, 81, 82, 83, 84, 85, 86, 87, 88, 89, 90, 91, 92, 93, 94, 95, 96, 97, 98, 99, 100, 101, 102, 103, 104, 105, 106, 107, 108, 109, 110, 111, 112, 113, 114, 115, 116, 117, 118, 119, 120, 121, 122, 123, 124, 125, 126, 127, 128, 129, 130, 131, 132, 133, 134, 135, 136, 137, 138, 139, 140, 141, 142, 143, 144, 145, 146, 147, 148, 149, 150, 151, 152, 153, 154, 155, 156, 157, 158, 159, 160, 161, 162, 163, 164, 165, 166, 167, 168, 169, 170, 171, 172, 173, 174, 175, 176, 177, 178, 179, 180, 181, 182, 183, 184, 185, 186, 187, 188, 189, 190, 191, 192, 193, 194, 195, 196, 197, 198, 199, 200, 201, 202, 203, 204, 205, 206, 207, 208, 209, 210, 211, 212, 213, 214, 215, 216, 217, 218, 219, 220, 221, 222, 223, 224, 225, 226, 227, 228, 229, 230, 231, 232, 233, 234, 235, 236, 237, 238, 239, 240, 241, 242, 243, 244, 245, 246, 247, 248, 249, 250, 251, 252, 253, 254, 255, 256, 257, 258, 259, 260, 261, 262, 263, 264, 265, 266, 267, 268, 269, 270, 271, 272, 273, 274, 275, 276, 277, 278, 279, 280, 281, 282, 283, 284, 285, 286, 287, 288, 289, 290, 291, 292, 293, 294, 295, 296, 297, 298, 299, 300],
      "AcquisitionTime": ["120230.752500", "120232.760000", "120234.767500", "120236.775000", "120238.782500", "120240.792500", "120242.800000", "120244.807500", "120246.815000", "120248.822500", "120250.832500", "120252.840000", "120254.847500", "120256.855000", "120258.865000", "120300.872500", "120302.880000", "120304.887500", "120306.895000", "120308.905000", "120310.912500", "120312.920000", "120314.927500", "120316.935000", "120318.945000", "120320.952500", "120322.960000", "120324.967500", "120326.975000", "120328.985000", "120330.992500", "120333.000000", "120335.007500", "120337.017500", "120339.025000", "120341.032500", "120343.040000", "120345.047500", "120347.057500", "120349.065000", "120351.072500", "120353.080000", "120355.087500", "120357.097500", "120359.105000", "120401.112500", "120403.120000", "120405.130000", "120407.137500", "120409.145000", "120411.152500", "120413.160000", "120415.170000", "120417.177500", "120419.185000", "120421.192500", "120423.200000", "120425.210000", "120427.217500", "120429.225000", "120431.232500", "120433.242500", "120435.250000", "120437.257500", "120439.265000", "120441.272500", "120443.282500", "120445.290000", "120447.297500", "120449.305000", "120451.312500", "120453.322500", "120455.330000", "120457.337500", "120459.345000", "120501.352500", "120503.362500", "120505.370000", "120507.377500", "120509.385000", "120511.395000", "120513.402500", "120515.410000", "120517.417500", "120519.425000", "120521.435000", "120523.442500", "120525.450000", "120527.457500", "120529.465000", "120531.475000", "120533.482500", "120535.490000", "120537.497500", "120539.507500", "120541.515000", "120543.522500", "120545.530000", "120547.537500", "120549.547500", "120551.555000", "120553.562500", "120555.570000", "120557.577500", "120559.587500", "120601.595000", "120603.602500", "120605.610000", "120607.620000", "120609.627500", "120611.635000", "120613.642500", "120615.650000", "120617.660000", "120619.667500", "120621.675000", "120623.682500", "120625.690000", "120627.700000", "120629.707500", "120631.715000", "120633.722500", "120635.730000", "120637.740000", "120639.747500", "120641.755000", "120643.762500", "120645.772500", "120647.780000", "120649.787500", "120651.795000", "120653.802500", "120655.812500", "120657.820000", "120659.827500", "120701.835000", "120703.842500", "120705.852500", "120707.860000", "120709.867500", "120711.875000", "120713.885000", "120715.892500", "120717.900000", "120719.907500", "120721.915000", "120723.925000", "120725.932500", "120727.940000", "120729.947500", "120731.955000", "120733.965000", "120735.972500", "120737.980000", "120739.987500", "120741.997500", "120744.005000", "120746.012500", "120748.020000", "120750.027500", "120752.037500", "120754.045000", "120756.052500", "120758.060000", "120800.067500", "120802.077500", "120804.085000", "120806.092500", "120808.100000", "120810.107500", "120812.117500", "120814.125000", "120816.132500", "120818.140000", "120820.150000", "120822.157500", "120824.165000", "120826.172500", "120828.180000", "120830.190000", "120832.197500", "120834.205000", "120836.212500", "120838.220000", "120840.230000", "120842.237500", "120844.245000", "120846.252500", "120848.262500", "120850.270000", "120852.277500", "120854.285000", "120856.292500", "120858.302500", "120900.310000", "120902.317500", "120904.325000", "120906.332500", "120908.342500", "120910.350000", "120912.357500", "120914.365000", "120916.375000", "120918.382500", "120920.390000", "120922.397500", "120924.405000", "120926.415000", "120928.422500", "120930.430000", "120932.437500", "120934.445000", "120936.455000", "120938.462500", "120940.470000", "120942.477500", "120944.487500", "120946.495000", "120948.502500", "120950.510000", "120952.517500", "120954.527500", "120956.535000", "120958.542500", "121000.550000", "121002.557500", "121004.567500", "121006.575000", "121008.582500", "121010.590000", "121012.597500", "121014.607500", "121016.615000", "121018.622500", "121020.630000", "121022.640000", "121024.647500", "121026.655000", "121028.662500", "121030.670000", "121032.680000", "121034.687500", "121036.695000", "121038.702500", "121040.710000", "121042.720000", "121044.727500", "121046.735000", "121048.742500", "121050.752500", "121052.760000", "121054.767500", "121056.775000", "121058.782500", "121100.792500", "121102.800000", "121104.807500", "121106.815000", "121108.822500", "121110.832500", "121112.840000", "121114.847500", "121116.855000", "121118.865000", "121120.872500", "121122.880000", "121124.887500", "121126.895000", "121128.905000", "121130.912500", "121132.920000", "121134.927500", "121136.935000", "121138.945000", "121140.952500", "121142.960000", "121144.967500", "121146.975000", "121148.985000", "121150.992500", "121153.000000", "121155.007500", "121157.017500", "121159.025000", "121201.032500", "121203.040000", "121205.047500", "121207.057500", "121209.065000", "121211.072500", "121213.080000", "121215.087500", "121217.097500", "121219.105000", "121221.112500", "121223.120000", "121225.130000", "121227.137500", "121229.145000", "121231.152500"],
      "ContentTime": ["120234.296000", "120236.281000", "120238.281000", "120240.281000", "120242.281000", "120244.281000", "120246.281000", "120248.281000", "120250.281000", "120252.281000", "120254.281000", "120256.281000", "120258.281000", "120300.281000", "120302.281000", "120304.281000", "120306.281000", "120308.281000", "120310.281000", "120312.281000", "120314.281000", "120316.281000", "120318.281000", "120320.281000", "120322.281000", "120324.281000", "120326.281000", "120328.281000", "120330.281000", "120332.281000", "120334.281000", "120336.281000", "120338.281000", "120340.281000", "120342.281000", "120344.281000", "120346.281000", "120348.281000", "120350.281000", "120352.281000", "120354.281000", "120356.281000", "120358.281000", "120400.281000", "120402.281000", "120404.281000", "120406.281000", "120408.281000", "120410.281000", "120412.281000", "120414.281000", "120416.281000", "120418.281000", "120420.281000", "120422.281000", "120424.281000", "120426.281000", "120428.281000", "120430.281000", "120432.281000", "120434.281000", "120436.281000", "120438.281000", "120440.281000", "120442.281000", "120444.281000", "120446.281000", "120448.281000", "120450.281000", "120452.281000", "120454.281000", "120456.281000", "120458.281000", "120500.281000", "120502.281000", "120504.281000", "120506.281000", "120508.281000", "120510.281000", "120512.281000", "120514.281000", "120516.281000", "120518.281000", "120520.281000", "120522.281000", "120524.281000", "120526.281000", "120528.281000", "120530.281000", "120532.281000", "120534.281000", "120536.281000", "120538.281000", "120540.281000", "120542.281000", "120544.281000", "120546.281000", "120548.281000", "120550.281000", "120552.281000", "120554.281000", "120556.281000", "120558.281000", "120600.281000", "120602.281000", "120604.281000", "120606.281000", "120608.281000", "120610.281000", "120612.281000", "120614.281000", "120616.281000", "120618.281000", "120620.281000", "120622.281000", "120624.281000", "120626.281000", "120628.281000", "120630.281000", "120632.281000", "120634.281000", "120636.281000", "120638.281000", "120640.281000", "120642.281000", "120644.281000", "120646.281000", "120648.281000", "120650.281000", "120652.281000", "120654.281000", "120656.281000", "120658.281000", "120700.281000", "120702.281000", "120704.281000", "120706.281000", "120708.281000", "120710.281000", "120712.281000", "120714.281000", "120716.281000", "120718.281000", "120720.281000", "120722.281000", "120724.281000", "120726.281000", "120728.281000", "120730.281000", "120732.281000", "120734.281000", "120736.281000", "120738.281000", "120740.281000", "120742.281000", "120744.281000", "120746.281000", "120748.281000", "120750.281000", "120752.281000", "120754.281000", "120756.281000", "120758.281000", "120800.281000", "120802.281000", "120804.281000", "120806.281000", "120808.281000", "120810.281000", "120812.281000", "120814.281000", "120816.281000", "120818.281000", "120820.281000", "120822.281000", "120824.281000", "120826.281000", "120828.281000", "120830.281000", "120832.281000", "120834.281000", "120836.281000", "120838.281000", "120840.281000", "120842.281000", "120844.281000", "120846.281000", "120848.281000", "120850.281000", "120852.281000", "120854.281000", "120856.281000", "120858.281000", "120900.281000", "120902.281000", "120904.281000", "120906.281000", "120908.281000", "120910.281000", "120912.281000", "120914.281000", "120916.281000", "120918.281000", "120920.281000", "120922.281000", "120924.281000", "120926.281000", "120928.281000", "120930.281000", "120932.281000", "120934.281000", "120936.281000", "120938.281000", "120940.281000", "120942.281000", "120944.281000", "120946.281000", "120948.281000", "120950.281000", "120952.281000", "120954.281000", "120956.281000", "120958.281000", "121000.281000", "121002.281000", "121004.281000", "121006.281000", "121008.281000", "121010.281000", "121012.281000", "121014.281000", "121016.281000", "121018.281000", "121020.281000", "121022.281000", "121024.281000", "121026.281000", "121028.281000", "121030.281000", "121032.281000", "121034.281000", "121036.281000", "121038.281000", "121040.281000", "121042.281000", "121044.281000", "121046.281000", "121048.281000", "121050.281000", "121052.281000", "121054.281000", "121056.281000", "121058.281000", "121100.281000", "121102.281000", "121104.281000", "121106.281000", "121108.281000", "121110.281000", "121112.281000", "121114.281000", "121116.281000", "121118.281000", "121120.281000", "121122.281000", "121124.281000", "121126.281000", "121128.281000", "121130.281000", "121132.281000", "121134.281000", "121136.281000", "121138.281000", "121140.281000", "121142.281000", "121144.281000", "121146.281000", "121148.281000", "121150.281000", "121152.281000", "121154.281000", "121156.281000", "121158.281000", "121200.281000", "121202.281000", "121204.281000", "121206.281000", "121208.281000", "121210.281000", "121212.281000", "121214.281000", "121216.281000", "121218.296000", "121220.281000", "121222.281000", "121224.281000", "121226.281000", "121228.281000", "121230.281000", "121231.875000"],
      "InstanceCreationTime": ["120234.296000", "120236.281000", "120238.281000", "120240.281000", "120242.281000", "120244.281000", "120246.281000", "120248.281000", "120250.281000", "120252.281000", "120254.281000", "120256.281000", "120258.281000", "120300.281000", "120302.281000", "120304.281000", "120306.281000", "120308.281000", "120310.281000", "120312.281000", "120314.281000", "120316.281000", "120318.281000", "120320.281000", "120322.281000", "120324.281000", "120326.281000", "120328.281000", "120330.281000", "120332.281000", "120334.281000", "120336.281000", "120338.281000", "120340.281000", "120342.281000", "120344.281000", "120346.281000", "120348.281000", "120350.281000", "120352.281000", "120354.281000", "120356.281000", "120358.281000", "120400.281000", "120402.281000", "120404.281000", "120406.281000", "120408.281000", "120410.281000", "120412.281000", "120414.281000", "120416.281000", "120418.281000", "120420.281000", "120422.281000", "120424.281000", "120426.281000", "120428.281000", "120430.281000", "120432.281000", "120434.281000", "120436.281000", "120438.281000", "120440.281000", "120442.281000", "120444.281000", "120446.281000", "120448.281000", "120450.281000", "120452.281000", "120454.281000", "120456.281000", "120458.281000", "120500.281000", "120502.281000", "120504.281000", "120506.281000", "120508.281000", "120510.281000", "120512.281000", "120514.281000", "120516.281000", "120518.281000", "120520.281000", "120522.281000", "120524.281000", "120526.281000", "120528.281000", "120530.281000", "120532.281000", "120534.281000", "120536.281000", "120538.281000", "120540.281000", "120542.281000", "120544.281000", "120546.281000", "120548.281000", "120550.281000", "120552.281000", "120554.281000", "120556.281000", "120558.281000", "120600.281000", "120602.281000", "120604.281000", "120606.281000", "120608.281000", "120610.281000", "120612.281000", "120614.281000", "120616.281000", "120618.281000", "120620.281000", "120622.281000", "120624.281000", "120626.281000", "120628.281000", "120630.281000", "120632.281000", "120634.281000", "120636.281000", "120638.281000", "120640.281000", "120642.281000", "120644.281000", "120646.281000", "120648.281000", "120650.281000", "120652.281000", "120654.281000", "120656.281000", "120658.281000", "120700.281000", "120702.281000", "120704.281000", "120706.281000", "120708.281000", "120710.281000", "120712.281000", "120714.281000", "120716.281000", "120718.281000", "120720.281000", "120722.281000", "120724.281000", "120726.281000", "120728.281000", "120730.281000", "120732.281000", "120734.281000", "120736.281000", "120738.281000", "120740.281000", "120742.281000", "120744.281000", "120746.281000", "120748.281000", "120750.281000", "120752.281000", "120754.281000", "120756.281000", "120758.281000", "120800.281000", "120802.281000", "120804.281000", "120806.281000", "120808.281000", "120810.281000", "120812.281000", "120814.281000", "120816.281000", "120818.281000", "120820.281000", "120822.281000", "120824.281000", "120826.281000", "120828.281000", "120830.281000", "120832.281000", "120834.281000", "120836.281000", "120838.281000", "120840.281000", "120842.281000", "120844.281000", "120846.281000", "120848.281000", "120850.281000", "120852.281000", "120854.281000", "120856.281000", "120858.281000", "120900.281000", "120902.281000", "120904.281000", "120906.281000", "120908.281000", "120910.281000", "120912.281000", "120914.281000", "120916.281000", "120918.281000", "120920.281000", "120922.281000", "120924.281000", "120926.281000", "120928.281000", "120930.281000", "120932.281000", "120934.281000", "120936.281000", "120938.281000", "120940.281000", "120942.281000", "120944.281000", "120946.281000", "120948.281000", "120950.281000", "120952.281000", "120954.281000", "120956.281000", "120958.281000", "121000.281000", "121002.281000", "121004.281000", "121006.281000", "121008.281000", "121010.281000", "121012.281000", "121014.281000", "121016.281000", "121018.281000", "121020.281000", "121022.281000", "121024.281000", "121026.281000", "121028.281000", "121030.281000", "121032.281000", "121034.281000", "121036.281000", "121038.281000", "121040.281000", "121042.281000", "121044.281000", "121046.281000", "121048.281000", "121050.281000", "121052.281000", "121054.281000", "121056.281000", "121058.281000", "121100.281000", "121102.281000", "121104.281000", "121106.281000", "121108.281000", "121110.281000", "121112.281000", "121114.281000", "121116.281000", "121118.281000", "121120.281000", "121122.281000", "121124.281000", "121126.281000", "121128.281000", "121130.281000", "121132.281000", "121134.281000", "121136.281000", "121138.281000", "121140.281000", "121142.281000", "121144.281000", "121146.281000", "121148.281000", "121150.281000", "121152.281000", "121154.281000", "121156.281000", "121158.281000", "121200.281000", "121202.281000", "121204.281000", "121206.281000", "121208.281000", "121210.281000", "121212.281000", "121214.281000", "121216.281000", "121218.296000", "121220.281000", "121222.281000", "121224.281000", "121226.281000", "121228.281000", "121230.281000", "121231.875000"],
      "InstanceNumber": [1, 2, 3, 4, 5, 6, 7, 8, 9, 10, 11, 12, 13, 14, 15, 16, 17, 18, 19, 20, 21, 22, 23, 24, 25, 26, 27, 28, 29, 30, 31, 32, 33, 34, 35, 36, 37, 38, 39, 40, 41, 42, 43, 44, 45, 46, 47, 48, 49, 50, 51, 52, 53, 54, 55, 56, 57, 58, 59, 60, 61, 62, 63, 64, 65, 66, 67, 68, 69, 70, 71, 72, 73, 74, 75, 76, 77, 78, 79, 80, 81, 82, 83, 84, 85, 86, 87, 88, 89, 90, 91, 92, 93, 94, 95, 96, 97, 98, 99, 100, 101, 102, 103, 104, 105, 106, 107, 108, 109, 110, 111, 112, 113, 114, 115, 116, 117, 118, 119, 120, 121, 122, 123, 124, 125, 126, 127, 128, 129, 130, 131, 132, 133, 134, 135, 136, 137, 138, 139, 140, 141, 142, 143, 144, 145, 146, 147, 148, 149, 150, 151, 152, 153, 154, 155, 156, 157, 158, 159, 160, 161, 162, 163, 164, 165, 166, 167, 168, 169, 170, 171, 172, 173, 174, 175, 176, 177, 178, 179, 180, 181, 182, 183, 184, 185, 186, 187, 188, 189, 190, 191, 192, 193, 194, 195, 196, 197, 198, 199, 200, 201, 202, 203, 204, 205, 206, 207, 208, 209, 210, 211, 212, 213, 214, 215, 216, 217, 218, 219, 220, 221, 222, 223, 224, 225, 226, 227, 228, 229, 230, 231, 232, 233, 234, 235, 236, 237, 238, 239, 240, 241, 242, 243, 244, 245, 246, 247, 248, 249, 250, 251, 252, 253, 254, 255, 256, 257, 258, 259, 260, 261, 262, 263, 264, 265, 266, 267, 268, 269, 270, 271, 272, 273, 274, 275, 276, 277, 278, 279, 280, 281, 282, 283, 284, 285, 286, 287, 288, 289, 290, 291, 292, 293, 294, 295, 296, 297, 298, 299, 300],
      "LargestImagePixelValue": [1661, 1629, 1615, 1619, 1717, 1624, 1624, 1612, 1612, 1675, 1616, 1617, 1631, 1608, 1612, 1626, 1641, 1912, 1587, 1595, 1696, 1636, 1657, 1615, 1607, 1608, 1614, 1614, 1748, 1612, 1590, 1648, 1612, 1625, 1602, 1584, 1739, 1607, 1593, 1608, 1622, 1596, 1735, 1601, 1609, 1613, 1600, 1605, 1600, 1615, 1610, 1614, 1604, 1594, 1615, 1605, 1602, 1618, 1755, 1628, 1618, 1627, 1595, 1590, 1595, 1586, 1663, 1591, 1595, 1585, 1610, 1598, 1595, 1595, 1600, 1596, 1598, 1739, 1589, 1583, 1581, 1581, 1567, 1594, 1577, 1603, 1599, 1601, 1603, 1591, 1598, 1596, 1603, 1576, 1595, 1581, 1606, 1610, 1605, 1590, 1590, 1589, 1597, 1577, 1600, 1577, 1608, 1588, 1604, 1636, 1598, 1590, 1596, 1599, 1597, 1597, 1591, 1631, 1619, 1630, 1612, 1609, 1645, 1610, 1612, 1622, 1623, 1615, 1609, 1607, 1638, 1606, 1665, 1621, 1588, 1604, 1584, 1598, 1595, 1590, 1625, 1615, 1620, 1616, 1604, 1593, 1598, 1610, 1674, 1576, 1653, 1577, 1592, 1575, 1567, 1589, 1566, 1579, 1576, 1591, 1594, 1578, 1580, 1578, 1584, 1565, 1568, 1579, 1579, 1601, 1594, 1599, 1597, 1605, 1623, 1603, 1605, 1611, 1594, 1627, 1594, 1613, 1602, 1634, 1614, 1617, 1626, 1610, 1633, 1621, 1634, 1637, 1617, 1603, 1627, 1637, 1630, 1660, 1641, 1643, 1626, 1710, 1630, 1638, 1621, 1625, 1626, 1628, 1612, 1619, 1627, 1655, 1656, 1659, 1644, 1663, 1625, 1649, 1634, 1645, 1662, 1626, 1645, 1643, 1679, 1666, 1650, 1648, 1656, 1646, 1666, 1644, 1647, 1650, 1643, 1648, 1651, 1648, 1644, 1656, 1667, 1663, 1669, 1651, 1661, 1646, 1655, 1663, 1668, 1713, 1641, 1669, 1651, 1667, 1646, 1664, 1689, 1678, 1669, 1650, 1668, 1653, 1653, 1644, 1648, 1674, 1645, 1664, 1654, 1662, 1680, 1640, 1682, 1677, 1678, 1674, 1643, 1638, 1643, 1629, 1638, 1648, 1649, 1633, 1640, 1639, 1637, 1643, 1633, 1634, 1624, 1635, 1618, 1647, 1638, 1622, 1624, 1622, 1620, 1618],
      "WindowCenter": [689.0, 687.0, 686.0, 685.0, 686.0, 685.0, 685.0, 685.0, 685.0, 686.0, 685.0, 686.0, 687.0, 687.0, 688.0, 687.0, 687.0, 688.0, 685.0, 686.0, 687.0, 686.0, 686.0, 686.0, 686.0, 688.0, 687.0, 686.0, 687.0, 685.0, 686.0, 686.0, 686.0, 686.0, 686.0, 686.0, 686.0, 686.0, 687.0, 687.0, 687.0, 686.0, 686.0, 685.0, 686.0, 686.0, 686.0, 686.0, 686.0, 687.0, 687.0, 688.0, 687.0, 686.0, 686.0, 687.0, 686.0, 686.0, 687.0, 686.0, 687.0, 687.0, 688.0, 687.0, 686.0, 686.0, 687.0, 687.0, 686.0, 685.0, 686.0, 687.0, 687.0, 686.0, 686.0, 687.0, 686.0, 686.0, 685.0, 685.0, 686.0, 686.0, 686.0, 685.0, 685.0, 686.0, 686.0, 687.0, 686.0, 686.0, 686.0, 686.0, 686.0, 686.0, 686.0, 685.0, 686.0, 686.0, 686.0, 686.0, 686.0, 686.0, 686.0, 685.0, 685.0, 685.0, 686.0, 685.0, 685.0, 685.0, 685.0, 686.0, 685.0, 685.0, 685.0, 686.0, 686.0, 686.0, 685.0, 685.0, 686.0, 685.0, 687.0, 686.0, 686.0, 685.0, 685.0, 686.0, 686.0, 685.0, 685.0, 685.0, 685.0, 685.0, 685.0, 686.0, 685.0, 685.0, 685.0, 685.0, 685.0, 685.0, 685.0, 685.0, 685.0, 686.0, 686.0, 687.0, 687.0, 685.0, 685.0, 684.0, 685.0, 685.0, 685.0, 686.0, 685.0, 686.0, 686.0, 686.0, 685.0, 685.0, 685.0, 685.0, 685.0, 685.0, 684.0, 685.0, 685.0, 686.0, 685.0, 685.0, 685.0, 685.0, 685.0, 685.0, 685.0, 685.0, 685.0, 685.0, 685.0, 684.0, 686.0, 686.0, 685.0, 685.0, 684.0, 685.0, 685.0, 686.0, 685.0, 685.0, 685.0, 686.0, 687.0, 686.0, 686.0, 686.0, 686.0, 686.0, 685.0, 685.0, 684.0, 686.0, 686.0, 686.0, 686.0, 686.0, 686.0, 685.0, 686.0, 686.0, 686.0, 686.0, 686.0, 686.0, 686.0, 686.0, 687.0, 687.0, 685.0, 685.0, 684.0, 685.0, 685.0, 685.0, 686.0, 685.0, 686.0, 685.0, 686.0, 686.0, 686.0, 685.0, 686.0, 686.0, 685.0, 685.0, 686.0, 686.0, 686.0, 686.0, 687.0, 686.0, 686.0, 685.0, 685.0, 685.0, 685.0, 685.0, 685.0, 685.0, 686.0, 686.0, 686.0, 686.0, 686.0, 686.0, 686.0, 685.0, 685.0, 685.0, 686.0, 686.0, 686.0, 685.0, 685.0, 686.0, 686.0, 686.0, 686.0, 686.0, 686.0, 685.0, 686.0, 686.0, 687.0, 687.0, 687.0, 686.0, 685.0, 686.0, 686.0, 686.0, 686.0, 686.0, 686.0, 686.0, 687.0, 687.0, 687.0, 687.0, 687.0, 687.0, 687.0, 686.0, 685.0, 686.0, 685.0, 686.0],
