{
  "AcquisitionMatrixPE": 64,
  "AcquisitionNumber": 1,
  "AcquisitionTime": "12:28:51.757500",
  "BandwidthPerPixelPhaseEncode": 31.25,
  "BaseResolution": 64,
  "CoilCombinationMethod": "Sum of Squares",
  "CoilString": "C:HEA;HEP",
  "ConversionSoftware": "dcm2niix",
  "ConversionSoftwareVersion": "v1.0.20211006",
  "DerivedVendorReportedEchoSpacing": 0.0005,
  "DeviceSerialNumber": "35377",
  "DwellTime": 3.4e-06,
  "EchoTime": 0.03,
  "EffectiveEchoSpacing": 0.0005,
  "FlipAngle": 90,
  "ImageOrientationPatientDICOM": [0.998079, 0.0607862, -0.0119756, -0.0610452, 0.997879, -0.0226005],
  "ImageOrientationText": "Tra>Cor(-1.3)>Sag(-0.6)",
  "ImageType": [
    "ORIGINAL",
    "PRIMARY",
    "M",
    "ND",
    "MOSAIC"
],
  "ImagingFrequency": 123.256,
  "InPlanePhaseEncodingDirectionDICOM": "COL",
  "InstitutionAddress": "Azinhaga Santa Comba StreetNo,Coimbra,District,PT,3000",
  "InstitutionName": "ICNAS",
  "InstitutionalDepartmentName": "Department",
  "MRAcquisitionType": "2D",
  "MagneticFieldStrength": 3,
  "Manufacturer": "Siemens",
  "ManufacturersModelName": "TrioTim",
  "MatrixCoilMode": "SENSE",
  "Modality": "MR",
  "PartialFourier": 1,
  "PatientPosition": "HFS",
  "PercentPhaseFOV": 100,
  "PercentSampling": 100,
  "PhaseEncodingDirection": "j-",
  "PhaseEncodingSteps": 64,
  "PhaseResolution": 1,
  "PixelBandwidth": 2298,
  "ProcedureStepDescription": "Unknown",
  "ProtocolName": "rtfmri_neurofeedback_AvatarNofeedback",
  "PulseSequenceDetails": "%SiemensSeq%\\ep2d_bold",
  "ReceiveCoilName": "HeadMatrix",
  "ReconMatrixPE": 64,
  "RepetitionTime": 2,
  "SAR": 0.206145,
  "ScanOptions": "FS",
  "ScanningSequence": "EP",
  "SequenceName": "*epfid2d1_64",
  "SequenceVariant": "SK",
  "SeriesDescription": "rtfmri_neurofeedback_AvatarNofeedback",
  "SeriesNumber": 7,
  "ShimSetting": [15847, 7566, 21229, 501, 327, 108, -51, 46],
  "SliceThickness": 3,
  "SliceTiming": [0, 1.035, 0.06, 1.095, 0.1225, 1.155, 0.1825, 1.2175, 0.2425, 1.2775, 0.305, 1.3375, 0.365, 1.4, 0.425, 1.46, 0.4875, 1.52, 0.5475, 1.5825, 0.6075, 1.6425, 0.67, 1.7025, 0.73, 1.765, 0.79, 1.825, 0.8525, 1.885, 0.9125, 1.9475, 0.9725],
  "SoftwareVersions": "syngo MR B17",
  "SpacingBetweenSlices": 3,
  "StationName": "MRC35377",
  "TaskName": "nofeedback",
  "TotalReadoutTime": 0.0315,
  "TxRefAmp": 388.315,
  "dcmmeta_affine": [
    [-3.9923157691955566, -0.24418073892593384, -0.03172919526696205, 135.73117065429688],
    [-0.24314472079277039, 3.991516351699829, -0.06986451894044876, -87.33373260498047],
    [-0.04790239408612251, 0.09040214866399765, 2.999018430709839, -71.18346405029297],
    [0.0, 0.0, 0.0, 1.0]
],
  "dcmmeta_reorient_transform": [
    [0.0, -1.0, 0.0, 63.0],
    [1.0, 0.0, 0.0, 0.0],
    [0.0, 0.0, 1.0, 0.0],
    [0.0, 0.0, 0.0, 1.0]
],
  "dcmmeta_shape": [64, 64, 33, 300],
  "dcmmeta_slice_dim": 2,
  "dcmmeta_version": 0.6,
  "global": {
    "const": {
      "AccessionNumber": "MRS20150331-0824",
      "AcquisitionMatrix": [64, 0, 0, 64],
      "Allergies": "MEDALERGIESL",
      "AngioFlag": "N",
      "BitsAllocated": 16,
      "BitsStored": 12,
      "Columns": 384,
      "EchoNumbers": 1,
      "EchoTime": 30.0,
      "EchoTrainLength": 1,
      "FlipAngle": 90.0,
      "HighBit": 11,
      "ImageOrientationPatient": [0.99807896739126, 0.06078618174252, -0.0119755985385, -0.0610451851763, 0.9978791014208, -0.022600537923],
      "ImagePositionPatient": [-720.04940021524, -841.67758380122, -43.359398962686],
      "ImageType": [
        "ORIGINAL",
        "PRIMARY",
        "M",
        "ND",
        "MOSAIC"
],
      "ImagedNucleus": "1H",
      "ImagingFrequency": 123.255654,
      "InPlanePhaseEncodingDirection": "COL",
      "MRAcquisitionType": "2D",
      "MagneticFieldStrength": 3.0,
      "Manufacturer": "SIEMENS",
      "ManufacturerModelName": "TrioTim",
      "MedicalAlerts": "MEDALERTS",
      "Modality": "MR",
      "NumberOfAverages": 1.0,
      "NumberOfPhaseEncodingSteps": 64,
      "PercentPhaseFieldOfView": 100.0,
      "PercentSampling": 100.0,
      "PerformedProcedureStepStartTime": "113441.421000",
      "PhotometricInterpretation": "MONOCHROME2",
      "PixelBandwidth": 2298.0,
      "PixelRepresentation": 0,
      "PixelSpacing": [4.0, 4.0],
      "ProtocolName": "rtfmri_neurofeedback_AvatarNofeedback",
      "RepetitionTime": 2000.0,
      "RequestAttributesSequence": [
        {
          "RequestedProcedureID": "36691848-2942-46",
          "ScheduledProcedureStepDescription": "Unknown",
          "ScheduledProcedureStepID": "36691848-2942-46"}
],
      "Rows": 384,
      "SAR": 0.20614537597833,
      "SamplesPerPixel": 1,
      "ScanOptions": "FS",
      "ScanningSequence": "EP",
      "SequenceName": "*epfid2d1_64",
      "SequenceVariant": "SK",
      "SeriesDescription": "rtfmri_neurofeedback_AvatarNofeedback",
      "SeriesNumber": 7,
      "SeriesTime": "122855.468000",
      "SliceLocation": -70.561877806689,
      "SliceThickness": 3.0,
      "SmallestImagePixelValue": 0,
      "SoftwareVersions": "syngo MR B17",
      "SpacingBetweenSlices": 2.9999998899718,
      "SpecificCharacterSet": "ISO_IR 100",
      "StudyID": "36691848-2942-46",
      "StudyTime": "113440.875000",
      "TransmitCoilName": "Body",
      "VariableFlipAngleFlag": "N",
      "WindowCenterWidthExplanation": "Algo1",
      "dBdt": 0.0},
    "slices": {}
  },
  "time": {
    "samples": {
      "AcquisitionNumber": [1, 2, 3, 4, 5, 6, 7, 8, 9, 10, 11, 12, 13, 14, 15, 16, 17, 18, 19, 20, 21, 22, 23, 24, 25, 26, 27, 28, 29, 30, 31, 32, 33, 34, 35, 36, 37, 38, 39, 40, 41, 42, 43, 44, 45, 46, 47, 48, 49, 50, 51, 52, 53, 54, 55, 56, 57, 58, 59, 60, 61, 62, 63, 64, 65, 66, 67, 68, 69, 70, 71, 72, 73, 74, 75, 76, 77, 78, 79, 80, 81, 82, 83, 84, 85, 86, 87, 88, 89, 90, 91, 92, 93, 94, 95, 96, 97, 98, 99, 100, 101, 102, 103, 104, 105, 106, 107, 108, 109, 110, 111, 112, 113, 114, 115, 116, 117, 118, 119, 120, 121, 122, 123, 124, 125, 126, 127, 128, 129, 130, 131, 132, 133, 134, 135, 136, 137, 138, 139, 140, 141, 142, 143, 144, 145, 146, 147, 148, 149, 150, 151, 152, 153, 154, 155, 156, 157, 158, 159, 160, 161, 162, 163, 164, 165, 166, 167, 168, 169, 170, 171, 172, 173, 174, 175, 176, 177, 178, 179, 180, 181, 182, 183, 184, 185, 186, 187, 188, 189, 190, 191, 192, 193, 194, 195, 196, 197, 198, 199, 200, 201, 202, 203, 204, 205, 206, 207, 208, 209, 210, 211, 212, 213, 214, 215, 216, 217, 218, 219, 220, 221, 222, 223, 224, 225, 226, 227, 228, 229, 230, 231, 232, 233, 234, 235, 236, 237, 238, 239, 240, 241, 242, 243, 244, 245, 246, 247, 248, 249, 250, 251, 252, 253, 254, 255, 256, 257, 258, 259, 260, 261, 262, 263, 264, 265, 266, 267, 268, 269, 270, 271, 272, 273, 274, 275, 276, 277, 278, 279, 280, 281, 282, 283, 284, 285, 286, 287, 288, 289, 290, 291, 292, 293, 294, 295, 296, 297, 298, 299, 300],
      "AcquisitionTime": ["122851.757500", "122853.765000", "122855.772500", "122857.782500", "122859.790000", "122901.797500", "122903.805000", "122905.812500", "122907.822500", "122909.830000", "122911.837500", "122913.845000", "122915.855000", "122917.862500", "122919.870000", "122921.877500", "122923.885000", "122925.895000", "122927.902500", "122929.910000", "122931.917500", "122933.925000", "122935.935000", "122937.942500", "122939.950000", "122941.957500", "122943.967500", "122945.975000", "122947.982500", "122949.990000", "122951.997500", "122954.007500", "122956.015000", "122958.022500", "123000.030000", "123002.037500", "123004.047500", "123006.055000", "123008.062500", "123010.070000", "123012.080000", "123014.087500", "123016.095000", "123018.102500", "123020.110000", "123022.120000", "123024.127500", "123026.135000", "123028.142500", "123030.150000", "123032.160000", "123034.167500", "123036.175000", "123038.182500", "123040.192500", "123042.200000", "123044.207500", "123046.215000", "123048.222500", "123050.232500", "123052.240000", "123054.247500", "123056.255000", "123058.262500", "123100.272500", "123102.280000", "123104.287500", "123106.295000", "123108.302500", "123110.312500", "123112.320000", "123114.327500", "123116.335000", "123118.345000", "123120.352500", "123122.360000", "123124.367500", "123126.375000", "123128.385000", "123130.392500", "123132.400000", "123134.407500", "123136.415000", "123138.425000", "123140.432500", "123142.440000", "123144.447500", "123146.457500", "123148.465000", "123150.472500", "123152.480000", "123154.487500", "123156.497500", "123158.505000", "123200.512500", "123202.520000", "123204.527500", "123206.537500", "123208.545000", "123210.552500", "123212.560000", "123214.570000", "123216.577500", "123218.585000", "123220.592500", "123222.600000", "123224.610000", "123226.617500", "123228.625000", "123230.632500", "123232.640000", "123234.650000", "123236.657500", "123238.665000", "123240.672500", "123242.680000", "123244.690000", "123246.697500", "123248.705000", "123250.712500", "123252.722500", "123254.730000", "123256.737500", "123258.745000", "123300.752500", "123302.762500", "123304.770000", "123306.777500", "123308.785000", "123310.792500", "123312.802500", "123314.810000", "123316.817500", "123318.825000", "123320.835000", "123322.842500", "123324.850000", "123326.857500", "123328.865000", "123330.875000", "123332.882500", "123334.890000", "123336.897500", "123338.905000", "123340.915000", "123342.922500", "123344.930000", "123346.937500", "123348.947500", "123350.955000", "123352.962500", "123354.970000", "123356.977500", "123358.987500", "123400.995000", "123403.002500", "123405.010000", "123407.017500", "123409.027500", "123411.035000", "123413.042500", "123415.050000", "123417.057500", "123419.067500", "123421.075000", "123423.082500", "123425.090000", "123427.100000", "123429.107500", "123431.115000", "123433.122500", "123435.130000", "123437.140000", "123439.147500", "123441.155000", "123443.162500", "123445.170000", "123447.180000", "123449.187500", "123451.195000", "123453.202500", "123455.212500", "123457.220000", "123459.227500", "123501.235000", "123503.242500", "123505.252500", "123507.260000", "123509.267500", "123511.275000", "123513.282500", "123515.292500", "123517.300000", "123519.307500", "123521.315000", "123523.325000", "123525.332500", "123527.340000", "123529.347500", "123531.355000", "123533.365000", "123535.372500", "123537.380000", "123539.387500", "123541.395000", "123543.405000", "123545.412500", "123547.420000", "123549.427500", "123551.435000", "123553.445000", "123555.452500", "123557.460000", "123559.467500", "123601.477500", "123603.485000", "123605.492500", "123607.500000", "123609.507500", "123611.517500", "123613.525000", "123615.532500", "123617.540000", "123619.547500", "123621.557500", "123623.565000", "123625.572500", "123627.580000", "123629.590000", "123631.597500", "123633.605000", "123635.612500", "123637.620000", "123639.630000", "123641.637500", "123643.645000", "123645.652500", "123647.660000", "123649.670000", "123651.677500", "123653.685000", "123655.692500", "123657.702500", "123659.710000", "123701.717500", "123703.725000", "123705.732500", "123707.742500", "123709.750000", "123711.757500", "123713.765000", "123715.772500", "123717.782500", "123719.790000", "123721.797500", "123723.805000", "123725.812500", "123727.822500", "123729.830000", "123731.837500", "123733.845000", "123735.855000", "123737.862500", "123739.870000", "123741.877500", "123743.885000", "123745.895000", "123747.902500", "123749.910000", "123751.917500", "123753.925000", "123755.935000", "123757.942500", "123759.950000", "123801.957500", "123803.967500", "123805.975000", "123807.982500", "123809.990000", "123811.997500", "123814.007500", "123816.015000", "123818.022500", "123820.030000", "123822.037500", "123824.047500", "123826.055000", "123828.062500", "123830.070000", "123832.080000", "123834.087500", "123836.095000", "123838.102500", "123840.110000", "123842.120000", "123844.127500", "123846.135000", "123848.142500", "123850.150000", "123852.160000"],
      "ContentTime": ["122855.484000", "122857.468000", "122859.468000", "122901.468000", "122903.468000", "122905.468000", "122907.468000", "122909.468000", "122911.468000", "122913.468000", "122915.468000", "122917.468000", "122919.468000", "122921.468000", "122923.468000", "122925.468000", "122927.468000", "122929.468000", "122931.468000", "122933.468000", "122935.468000", "122937.468000", "122939.468000", "122941.468000", "122943.468000", "122945.468000", "122947.468000", "122949.468000", "122951.468000", "122953.468000", "122955.468000", "122957.468000", "122959.468000", "123001.468000", "123003.468000", "123005.468000", "123007.468000", "123009.468000", "123011.468000", "123013.468000", "123015.468000", "123017.468000", "123019.468000", "123021.468000", "123023.468000", "123025.468000", "123027.468000", "123029.468000", "123031.468000", "123033.468000", "123035.468000", "123037.468000", "123039.468000", "123041.468000", "123043.468000", "123045.468000", "123047.468000", "123049.468000", "123051.468000", "123053.468000", "123055.468000", "123057.468000", "123059.468000", "123101.468000", "123103.468000", "123105.468000", "123107.468000", "123109.468000", "123111.468000", "123113.468000", "123115.468000", "123117.468000", "123119.468000", "123121.468000", "123123.468000", "123125.468000", "123127.468000", "123129.468000", "123131.468000", "123133.468000", "123135.468000", "123137.468000", "123139.468000", "123141.468000", "123143.468000", "123145.468000", "123147.468000", "123149.468000", "123151.468000", "123153.468000", "123155.468000", "123157.468000", "123159.468000", "123201.468000", "123203.468000", "123205.468000", "123207.468000", "123209.468000", "123211.468000", "123213.468000", "123215.468000", "123217.468000", "123219.468000", "123221.468000", "123223.468000", "123225.468000", "123227.468000", "123229.468000", "123231.468000", "123233.468000", "123235.468000", "123237.468000", "123239.468000", "123241.468000", "123243.468000", "123245.468000", "123247.468000", "123249.468000", "123251.468000", "123253.468000", "123255.468000", "123257.468000", "123259.468000", "123301.468000", "123303.468000", "123305.468000", "123307.468000", "123309.468000", "123311.468000", "123313.468000", "123315.468000", "123317.468000", "123319.468000", "123321.468000", "123323.468000", "123325.468000", "123327.468000", "123329.468000", "123331.468000", "123333.468000", "123335.468000", "123337.468000", "123339.468000", "123341.468000", "123343.468000", "123345.468000", "123347.468000", "123349.468000", "123351.468000", "123353.468000", "123355.468000", "123357.468000", "123359.468000", "123401.468000", "123403.468000", "123405.468000", "123407.468000", "123409.468000", "123411.468000", "123413.468000", "123415.468000", "123417.468000", "123419.468000", "123421.468000", "123423.468000", "123425.468000", "123427.468000", "123429.468000", "123431.468000", "123433.468000", "123435.468000", "123437.468000", "123439.468000", "123441.468000", "123443.468000", "123445.468000", "123447.468000", "123449.468000", "123451.468000", "123453.468000", "123455.468000", "123457.468000", "123459.468000", "123501.468000", "123503.468000", "123505.468000", "123507.468000", "123509.468000", "123511.468000", "123513.468000", "123515.468000", "123517.468000", "123519.468000", "123521.468000", "123523.468000", "123525.468000", "123527.468000", "123529.468000", "123531.468000", "123533.468000", "123535.468000", "123537.468000", "123539.468000", "123541.468000", "123543.468000", "123545.468000", "123547.468000", "123549.468000", "123551.468000", "123553.468000", "123555.468000", "123557.468000", "123559.468000", "123601.468000", "123603.468000", "123605.468000", "123607.468000", "123609.468000", "123611.468000", "123613.468000", "123615.468000", "123617.468000", "123619.468000", "123621.468000", "123623.468000", "123625.468000", "123627.468000", "123629.468000", "123631.468000", "123633.468000", "123635.468000", "123637.468000", "123639.468000", "123641.468000", "123643.468000", "123645.468000", "123647.468000", "123649.468000", "123651.468000", "123653.468000", "123655.468000", "123657.468000", "123659.468000", "123701.468000", "123703.468000", "123705.468000", "123707.468000", "123709.468000", "123711.468000", "123713.468000", "123715.468000", "123717.468000", "123719.468000", "123721.468000", "123723.468000", "123725.468000", "123727.468000", "123729.468000", "123731.468000", "123733.468000", "123735.468000", "123737.468000", "123739.468000", "123741.468000", "123743.468000", "123745.468000", "123747.468000", "123749.468000", "123751.468000", "123753.468000", "123755.468000", "123757.468000", "123759.468000", "123801.468000", "123803.468000", "123805.468000", "123807.468000", "123809.468000", "123811.468000", "123813.468000", "123815.468000", "123817.468000", "123819.468000", "123821.468000", "123823.468000", "123825.468000", "123827.468000", "123829.468000", "123831.468000", "123833.468000", "123835.468000", "123837.468000", "123839.468000", "123841.468000", "123843.468000", "123845.468000", "123847.468000", "123849.468000", "123851.468000", "123853.078000"],
      "InstanceCreationTime": ["122855.484000", "122857.468000", "122859.468000", "122901.468000", "122903.468000", "122905.468000", "122907.468000", "122909.468000", "122911.468000", "122913.468000", "122915.468000", "122917.468000", "122919.468000", "122921.468000", "122923.468000", "122925.468000", "122927.468000", "122929.468000", "122931.468000", "122933.468000", "122935.468000", "122937.468000", "122939.468000", "122941.468000", "122943.468000", "122945.468000", "122947.468000", "122949.468000", "122951.468000", "122953.468000", "122955.468000", "122957.468000", "122959.468000", "123001.468000", "123003.468000", "123005.468000", "123007.468000", "123009.468000", "123011.468000", "123013.468000", "123015.468000", "123017.468000", "123019.468000", "123021.468000", "123023.468000", "123025.468000", "123027.468000", "123029.468000", "123031.468000", "123033.468000", "123035.468000", "123037.468000", "123039.468000", "123041.468000", "123043.468000", "123045.468000", "123047.468000", "123049.468000", "123051.468000", "123053.468000", "123055.468000", "123057.468000", "123059.468000", "123101.468000", "123103.468000", "123105.468000", "123107.468000", "123109.468000", "123111.468000", "123113.468000", "123115.468000", "123117.468000", "123119.468000", "123121.468000", "123123.468000", "123125.468000", "123127.468000", "123129.468000", "123131.468000", "123133.468000", "123135.468000", "123137.468000", "123139.468000", "123141.468000", "123143.468000", "123145.468000", "123147.468000", "123149.468000", "123151.468000", "123153.468000", "123155.468000", "123157.468000", "123159.468000", "123201.468000", "123203.468000", "123205.468000", "123207.468000", "123209.468000", "123211.468000", "123213.468000", "123215.468000", "123217.468000", "123219.468000", "123221.468000", "123223.468000", "123225.468000", "123227.468000", "123229.468000", "123231.468000", "123233.468000", "123235.468000", "123237.468000", "123239.468000", "123241.468000", "123243.468000", "123245.468000", "123247.468000", "123249.468000", "123251.468000", "123253.468000", "123255.468000", "123257.468000", "123259.468000", "123301.468000", "123303.468000", "123305.468000", "123307.468000", "123309.468000", "123311.468000", "123313.468000", "123315.468000", "123317.468000", "123319.468000", "123321.468000", "123323.468000", "123325.468000", "123327.468000", "123329.468000", "123331.468000", "123333.468000", "123335.468000", "123337.468000", "123339.468000", "123341.468000", "123343.468000", "123345.468000", "123347.468000", "123349.468000", "123351.468000", "123353.468000", "123355.468000", "123357.468000", "123359.468000", "123401.468000", "123403.468000", "123405.468000", "123407.468000", "123409.468000", "123411.468000", "123413.468000", "123415.468000", "123417.468000", "123419.468000", "123421.468000", "123423.468000", "123425.468000", "123427.468000", "123429.468000", "123431.468000", "123433.468000", "123435.468000", "123437.468000", "123439.468000", "123441.468000", "123443.468000", "123445.468000", "123447.468000", "123449.468000", "123451.468000", "123453.468000", "123455.468000", "123457.468000", "123459.468000", "123501.468000", "123503.468000", "123505.468000", "123507.468000", "123509.468000", "123511.468000", "123513.468000", "123515.468000", "123517.468000", "123519.468000", "123521.468000", "123523.468000", "123525.468000", "123527.468000", "123529.468000", "123531.468000", "123533.468000", "123535.468000", "123537.468000", "123539.468000", "123541.468000", "123543.468000", "123545.468000", "123547.468000", "123549.468000", "123551.468000", "123553.468000", "123555.468000", "123557.468000", "123559.468000", "123601.468000", "123603.468000", "123605.468000", "123607.468000", "123609.468000", "123611.468000", "123613.468000", "123615.468000", "123617.468000", "123619.468000", "123621.468000", "123623.468000", "123625.468000", "123627.468000", "123629.468000", "123631.468000", "123633.468000", "123635.468000", "123637.468000", "123639.468000", "123641.468000", "123643.468000", "123645.468000", "123647.468000", "123649.468000", "123651.468000", "123653.468000", "123655.468000", "123657.468000", "123659.468000", "123701.468000", "123703.468000", "123705.468000", "123707.468000", "123709.468000", "123711.468000", "123713.468000", "123715.468000", "123717.468000", "123719.468000", "123721.468000", "123723.468000", "123725.468000", "123727.468000", "123729.468000", "123731.468000", "123733.468000", "123735.468000", "123737.468000", "123739.468000", "123741.468000", "123743.468000", "123745.468000", "123747.468000", "123749.468000", "123751.468000", "123753.468000", "123755.468000", "123757.468000", "123759.468000", "123801.468000", "123803.468000", "123805.468000", "123807.468000", "123809.468000", "123811.468000", "123813.468000", "123815.468000", "123817.468000", "123819.468000", "123821.468000", "123823.468000", "123825.468000", "123827.468000", "123829.468000", "123831.468000", "123833.468000", "123835.468000", "123837.468000", "123839.468000", "123841.468000", "123843.468000", "123845.468000", "123847.468000", "123849.468000", "123851.468000", "123853.078000"],
      "InstanceNumber": [1, 2, 3, 4, 5, 6, 7, 8, 9, 10, 11, 12, 13, 14, 15, 16, 17, 18, 19, 20, 21, 22, 23, 24, 25, 26, 27, 28, 29, 30, 31, 32, 33, 34, 35, 36, 37, 38, 39, 40, 41, 42, 43, 44, 45, 46, 47, 48, 49, 50, 51, 52, 53, 54, 55, 56, 57, 58, 59, 60, 61, 62, 63, 64, 65, 66, 67, 68, 69, 70, 71, 72, 73, 74, 75, 76, 77, 78, 79, 80, 81, 82, 83, 84, 85, 86, 87, 88, 89, 90, 91, 92, 93, 94, 95, 96, 97, 98, 99, 100, 101, 102, 103, 104, 105, 106, 107, 108, 109, 110, 111, 112, 113, 114, 115, 116, 117, 118, 119, 120, 121, 122, 123, 124, 125, 126, 127, 128, 129, 130, 131, 132, 133, 134, 135, 136, 137, 138, 139, 140, 141, 142, 143, 144, 145, 146, 147, 148, 149, 150, 151, 152, 153, 154, 155, 156, 157, 158, 159, 160, 161, 162, 163, 164, 165, 166, 167, 168, 169, 170, 171, 172, 173, 174, 175, 176, 177, 178, 179, 180, 181, 182, 183, 184, 185, 186, 187, 188, 189, 190, 191, 192, 193, 194, 195, 196, 197, 198, 199, 200, 201, 202, 203, 204, 205, 206, 207, 208, 209, 210, 211, 212, 213, 214, 215, 216, 217, 218, 219, 220, 221, 222, 223, 224, 225, 226, 227, 228, 229, 230, 231, 232, 233, 234, 235, 236, 237, 238, 239, 240, 241, 242, 243, 244, 245, 246, 247, 248, 249, 250, 251, 252, 253, 254, 255, 256, 257, 258, 259, 260, 261, 262, 263, 264, 265, 266, 267, 268, 269, 270, 271, 272, 273, 274, 275, 276, 277, 278, 279, 280, 281, 282, 283, 284, 285, 286, 287, 288, 289, 290, 291, 292, 293, 294, 295, 296, 297, 298, 299, 300],
      "LargestImagePixelValue": [1410, 1418, 1423, 1434, 1424, 1412, 1412, 1397, 1378, 1394, 1389, 1388, 1396, 1404, 1399, 1407, 1391, 1402, 1391, 1384, 1409, 1400, 1401, 1389, 1395, 1405, 1406, 1420, 1397, 1374, 1379, 1410, 1388, 1407, 1378, 1389, 1384, 1386, 1429, 1413, 1413, 1412, 1397, 1403, 1418, 1400, 1400, 1387, 1389, 1443, 1419, 1398, 1391, 1412, 1396, 1381, 1391, 1419, 1392, 1387, 1400, 1401, 1425, 1385, 1384, 1383, 1389, 1394, 1454, 1377, 1382, 1388, 1403, 1393, 1398, 1404, 1384, 1393, 1378, 1379, 1369, 1374, 1382, 1377, 1375, 1385, 1387, 1382, 1374, 1386, 1399, 1371, 1384, 1369, 1434, 1370, 1374, 1393, 1396, 1371, 1364, 1369, 1406, 1396, 1378, 1389, 1377, 1405, 1355, 1404, 1387, 1376, 1363, 1360, 1394, 1378, 1388, 1380, 1375, 1368, 1376, 1378, 1393, 1403, 1389, 1368, 1376, 1375, 1379, 1368, 1366, 1400, 1367, 1393, 1385, 1404, 1374, 1370, 1366, 1376, 1389, 1368, 1360, 1380, 1378, 1397, 1378, 1383, 1374, 1390, 1414, 1382, 1375, 1372, 1380, 1407, 1393, 1377, 1398, 1414, 1394, 1404, 1389, 1443, 1386, 1442, 1370, 1383, 1399, 1471, 1404, 1469, 1374, 1456, 1369, 1385, 1392, 1437, 1391, 1453, 1395, 1386, 1399, 1405, 1387, 1379, 1477, 1428, 1456, 1389, 1400, 1392, 1426, 1391, 1412, 1378, 1451, 1385, 1373, 1385, 1371, 1392, 1377, 1398, 1362, 1402, 1393, 1395, 1385, 1396, 1375, 1402, 1386, 1370, 1389, 1396, 1387, 1362, 1394, 1393, 1394, 1400, 1443, 1375, 1404, 1396, 1387, 1418, 1383, 1396, 1407, 1392, 1387, 1386, 1381, 1387, 1415, 1405, 1371, 1390, 1387, 1381, 1400, 1398, 1387, 1374, 1384, 1414, 1397, 1405, 1387, 1401, 1409, 1399, 1413, 1422, 1398, 1387, 1429, 1421, 1399, 1396, 1388, 1383, 1391, 1413, 1414, 1408, 1410, 1401, 1379, 1391, 1382, 1395, 1391, 1397, 1377, 1405, 1399, 1416, 1388, 1385, 1382, 1379, 1378, 1387, 1401, 1387, 1383, 1388, 1393, 1415, 1404, 1399, 1374, 1375, 1401, 1385, 1388, 1383],
      "WindowCenter": [629.0, 628.0, 628.0, 628.0, 629.0, 627.0, 628.0, 627.0, 627.0, 628.0, 627.0, 627.0, 628.0, 628.0, 629.0, 629.0, 629.0, 628.0, 628.0, 628.0, 628.0, 628.0, 628.0, 628.0, 628.0, 628.0, 628.0, 628.0, 628.0, 627.0, 628.0, 628.0, 628.0, 627.0, 627.0, 628.0, 628.0, 628.0, 629.0, 629.0, 629.0, 629.0, 627.0, 628.0, 628.0, 628.0, 628.0, 628.0, 628.0, 629.0, 629.0, 629.0, 628.0, 628.0, 628.0, 628.0, 628.0, 628.0, 628.0, 628.0, 629.0, 629.0, 629.0, 628.0, 628.0, 627.0, 628.0, 628.0, 629.0, 628.0, 628.0, 629.0, 628.0, 628.0, 628.0, 629.0, 628.0, 628.0, 627.0, 628.0, 627.0, 628.0, 628.0, 628.0, 628.0, 628.0, 629.0, 628.0, 628.0, 627.0, 628.0, 628.0, 629.0, 628.0, 629.0, 628.0, 628.0, 629.0, 629.0, 628.0, 628.0, 628.0, 628.0, 628.0, 628.0, 628.0, 628.0, 628.0, 628.0, 628.0, 628.0, 629.0, 627.0, 627.0, 628.0, 627.0, 628.0, 628.0, 628.0, 627.0, 629.0, 628.0, 629.0, 629.0, 629.0, 628.0, 628.0, 628.0, 628.0, 628.0, 627.0, 627.0, 626.0, 627.0, 629.0, 629.0, 628.0, 628.0, 628.0, 628.0, 629.0, 628.0, 628.0, 628.0, 629.0, 628.0, 629.0, 628.0, 628.0, 629.0, 629.0, 628.0, 628.0, 628.0, 628.0, 628.0, 628.0, 629.0, 629.0, 630.0, 629.0, 629.0, 628.0, 630.0, 629.0, 629.0, 628.0, 629.0, 628.0, 630.0, 629.0, 631.0, 629.0, 629.0, 628.0, 628.0, 629.0, 630.0, 629.0, 630.0, 629.0, 628.0, 629.0, 629.0, 629.0, 629.0, 630.0, 629.0, 630.0, 628.0, 629.0, 629.0, 629.0, 628.0, 629.0, 629.0, 630.0, 628.0, 628.0, 628.0, 627.0, 628.0, 627.0, 628.0, 627.0, 628.0, 629.0, 629.0, 628.0, 628.0, 628.0, 628.0, 628.0, 628.0, 628.0, 628.0, 628.0, 628.0, 629.0, 629.0, 629.0, 629.0, 629.0, 629.0, 628.0, 629.0, 628.0, 630.0, 628.0, 628.0, 628.0, 629.0, 628.0, 628.0, 628.0, 629.0, 629.0, 629.0, 628.0, 629.0, 629.0, 629.0, 629.0, 629.0, 628.0, 628.0, 629.0, 629.0, 629.0, 629.0, 629.0, 629.0, 628.0, 628.0, 629.0, 630.0, 628.0, 628.0, 628.0, 628.0, 628.0, 628.0, 629.0, 629.0, 629.0, 629.0, 629.0, 629.0, 630.0, 629.0, 629.0, 629.0, 629.0, 629.0, 629.0, 629.0, 628.0, 629.0, 629.0, 630.0, 628.0, 629.0, 628.0, 629.0, 628.0, 629.0, 628.0, 629.0, 629.0, 629.0, 629.0, 630.0, 629.0, 629.0, 628.0, 629.0, 628.0, 629.0, 628.0, 628.0],
