{
  "AcquisitionMatrixPE": 64,
  "AcquisitionNumber": 1,
  "AcquisitionTime": "12:03:56.772500",
  "BandwidthPerPixelPhaseEncode": 31.25,
  "BaseResolution": 64,
  "CoilCombinationMethod": "Sum of Squares",
  "CoilString": "C:HEA;HEP",
  "ConversionSoftware": "dcm2niix",
  "ConversionSoftwareVersion": "v1.0.20211006",
  "DerivedVendorReportedEchoSpacing": 0.0005,
  "DeviceSerialNumber": "35377",
  "DwellTime": 3.4e-06,
  "EchoTime": 0.03,
  "EffectiveEchoSpacing": 0.0005,
  "FlipAngle": 90,
  "ImageOrientationPatientDICOM": [0.998079, 0.0607862, -0.0119756, -0.0610452, 0.997879, -0.0226005],
  "ImageOrientationText": "Tra>Cor(-1.3)>Sag(-0.6)",
  "ImageType": [
    "ORIGINAL",
    "PRIMARY",
    "M",
    "ND",
    "MOSAIC"
],
  "ImagingFrequency": 123.256,
  "InPlanePhaseEncodingDirectionDICOM": "COL",
  "InstitutionAddress": "Azinhaga Santa Comba StreetNo,Coimbra,District,PT,3000",
  "InstitutionName": "ICNAS",
  "InstitutionalDepartmentName": "Department",
  "MRAcquisitionType": "2D",
  "MagneticFieldStrength": 3,
  "Manufacturer": "Siemens",
  "ManufacturersModelName": "TrioTim",
  "MatrixCoilMode": "SENSE",
  "Modality": "MR",
  "PartialFourier": 1,
  "PatientPosition": "HFS",
  "PercentPhaseFOV": 100,
  "PercentSampling": 100,
  "PhaseEncodingDirection": "j-",
  "PhaseEncodingSteps": 64,
  "PhaseResolution": 1,
  "PixelBandwidth": 2298,
  "ProcedureStepDescription": "Unknown",
  "ProtocolName": "rtfmri_neurofeedback_AvatarVisual",
  "PulseSequenceDetails": "%SiemensSeq%\\ep2d_bold",
  "ReceiveCoilName": "HeadMatrix",
  "ReconMatrixPE": 64,
  "RepetitionTime": 2,
  "SAR": 0.206145,
  "ScanOptions": "FS",
  "ScanningSequence": "EP",
  "SequenceName": "*epfid2d1_64",
  "SequenceVariant": "SK",
  "SeriesDescription": "rtfmri_neurofeedback_AvatarVisual",
  "SeriesNumber": 5,
  "ShimSetting": [15847, 7566, 21229, 501, 327, 108, -51, 46],
  "SliceThickness": 3,
  "SliceTiming": [0, 1.035, 0.0625, 1.095, 0.1225, 1.1575, 0.1825, 1.2175, 0.245, 1.2775, 0.305, 1.34, 0.365, 1.4, 0.4275, 1.46, 0.4875, 1.5225, 0.5475, 1.5825, 0.61, 1.6425, 0.67, 1.705, 0.73, 1.765, 0.7925, 1.825, 0.8525, 1.8875, 0.9125, 1.9475, 0.975],
  "SoftwareVersions": "syngo MR B17",
  "SpacingBetweenSlices": 3,
  "StationName": "MRC35377",
  "TaskName": "visualfeedback",
  "TotalReadoutTime": 0.0315,
  "TxRefAmp": 388.315,
  "dcmmeta_affine": [
    [-3.9923157691955566, -0.24418073892593384, -0.03172919526696205, 135.73117065429688],
    [-0.24314472079277039, 3.991516351699829, -0.06986451894044876, -87.33373260498047],
    [-0.04790239408612251, 0.09040214866399765, 2.999018430709839, -71.18346405029297],
    [0.0, 0.0, 0.0, 1.0]
],
  "dcmmeta_reorient_transform": [
    [0.0, -1.0, 0.0, 63.0],
    [1.0, 0.0, 0.0, 0.0],
    [0.0, 0.0, 1.0, 0.0],
    [0.0, 0.0, 0.0, 1.0]
],
  "dcmmeta_shape": [64, 64, 33, 300],
  "dcmmeta_slice_dim": 2,
  "dcmmeta_version": 0.6,
  "global": {
    "const": {
      "AccessionNumber": "MRS20150331-0824",
      "AcquisitionMatrix": [64, 0, 0, 64],
      "Allergies": "MEDALERGIESL",
      "AngioFlag": "N",
      "BitsAllocated": 16,
      "BitsStored": 12,
      "Columns": 384,
      "EchoNumbers": 1,
      "EchoTime": 30.0,
      "EchoTrainLength": 1,
      "FlipAngle": 90.0,
      "HighBit": 11,
      "ImageOrientationPatient": [0.99807896739126, 0.06078618174252, -0.0119755985385, -0.0610451851763, 0.9978791014208, -0.022600537923],
      "ImagePositionPatient": [-720.04940021524, -841.67758380122, -43.359398962686],
      "ImageType": [
        "ORIGINAL",
        "PRIMARY",
        "M",
        "ND",
        "MOSAIC"
],
      "ImagedNucleus": "1H",
      "ImagingFrequency": 123.255645,
      "InPlanePhaseEncodingDirection": "COL",
      "MRAcquisitionType": "2D",
      "MagneticFieldStrength": 3.0,
      "Manufacturer": "SIEMENS",
      "ManufacturerModelName": "TrioTim",
      "MedicalAlerts": "MEDALERTS",
      "Modality": "MR",
      "NumberOfAverages": 1.0,
      "NumberOfPhaseEncodingSteps": 64,
      "PercentPhaseFieldOfView": 100.0,
      "PercentSampling": 100.0,
      "PerformedProcedureStepStartTime": "113441.421000",
      "PhotometricInterpretation": "MONOCHROME2",
      "PixelBandwidth": 2298.0,
      "PixelRepresentation": 0,
      "PixelSpacing": [4.0, 4.0],
      "ProtocolName": "rtfmri_neurofeedback_AvatarVisual",
      "RepetitionTime": 2000.0,
      "RequestAttributesSequence": [
        {
          "RequestedProcedureID": "36691848-2942-46",
          "ScheduledProcedureStepDescription": "Unknown",
          "ScheduledProcedureStepID": "36691848-2942-46"}
],
      "Rows": 384,
      "SAR": 0.20614537597833,
      "SamplesPerPixel": 1,
      "ScanOptions": "FS",
      "ScanningSequence": "EP",
      "SequenceName": "*epfid2d1_64",
      "SequenceVariant": "SK",
      "SeriesDescription": "rtfmri_neurofeedback_AvatarVisual",
      "SeriesNumber": 5,
      "SeriesTime": "120400.546000",
      "SliceLocation": -70.561877806689,
      "SliceThickness": 3.0,
      "SmallestImagePixelValue": 0,
      "SoftwareVersions": "syngo MR B17",
      "SpacingBetweenSlices": 2.9999998899718,
      "SpecificCharacterSet": "ISO_IR 100",
      "StudyID": "36691848-2942-46",
      "StudyTime": "113440.875000",
      "TransmitCoilName": "Body",
      "VariableFlipAngleFlag": "N",
      "WindowCenterWidthExplanation": "Algo1",
      "dBdt": 0.0},
    "slices": {}
  },
  "time": {
    "samples": {
      "AcquisitionNumber": [1, 2, 3, 4, 5, 6, 7, 8, 9, 10, 11, 12, 13, 14, 15, 16, 17, 18, 19, 20, 21, 22, 23, 24, 25, 26, 27, 28, 29, 30, 31, 32, 33, 34, 35, 36, 37, 38, 39, 40, 41, 42, 43, 44, 45, 46, 47, 48, 49, 50, 51, 52, 53, 54, 55, 56, 57, 58, 59, 60, 61, 62, 63, 64, 65, 66, 67, 68, 69, 70, 71, 72, 73, 74, 75, 76, 77, 78, 79, 80, 81, 82, 83, 84, 85, 86, 87, 88, 89, 90, 91, 92, 93, 94, 95, 96, 97, 98, 99, 100, 101, 102, 103, 104, 105, 106, 107, 108, 109, 110, 111, 112, 113, 114, 115, 116, 117, 118, 119, 120, 121, 122, 123, 124, 125, 126, 127, 128, 129, 130, 131, 132, 133, 134, 135, 136, 137, 138, 139, 140, 141, 142, 143, 144, 145, 146, 147, 148, 149, 150, 151, 152, 153, 154, 155, 156, 157, 158, 159, 160, 161, 162, 163, 164, 165, 166, 167, 168, 169, 170, 171, 172, 173, 174, 175, 176, 177, 178, 179, 180, 181, 182, 183, 184, 185, 186, 187, 188, 189, 190, 191, 192, 193, 194, 195, 196, 197, 198, 199, 200, 201, 202, 203, 204, 205, 206, 207, 208, 209, 210, 211, 212, 213, 214, 215, 216, 217, 218, 219, 220, 221, 222, 223, 224, 225, 226, 227, 228, 229, 230, 231, 232, 233, 234, 235, 236, 237, 238, 239, 240, 241, 242, 243, 244, 245, 246, 247, 248, 249, 250, 251, 252, 253, 254, 255, 256, 257, 258, 259, 260, 261, 262, 263, 264, 265, 266, 267, 268, 269, 270, 271, 272, 273, 274, 275, 276, 277, 278, 279, 280, 281, 282, 283, 284, 285, 286, 287, 288, 289, 290, 291, 292, 293, 294, 295, 296, 297, 298, 299, 300],
      "AcquisitionTime": ["120356.772500", "120358.782500", "120400.790000", "120402.797500", "120404.805000", "120406.815000", "120408.822500", "120410.830000", "120412.837500", "120414.845000", "120416.855000", "120418.862500", "120420.870000", "120422.877500", "120424.885000", "120426.895000", "120428.902500", "120430.910000", "120432.917500", "120434.925000", "120436.935000", "120438.942500", "120440.950000", "120442.957500", "120444.967500", "120446.975000", "120448.982500", "120450.990000", "120452.997500", "120455.007500", "120457.015000", "120459.022500", "120501.030000", "120503.037500", "120505.047500", "120507.055000", "120509.062500", "120511.070000", "120513.080000", "120515.087500", "120517.095000", "120519.102500", "120521.110000", "120523.120000", "120525.127500", "120527.135000", "120529.142500", "120531.150000", "120533.160000", "120535.167500", "120537.175000", "120539.182500", "120541.192500", "120543.200000", "120545.207500", "120547.215000", "120549.222500", "120551.232500", "120553.240000", "120555.247500", "120557.255000", "120559.262500", "120601.272500", "120603.280000", "120605.287500", "120607.295000", "120609.302500", "120611.312500", "120613.320000", "120615.327500", "120617.335000", "120619.345000", "120621.352500", "120623.360000", "120625.367500", "120627.375000", "120629.385000", "120631.392500", "120633.400000", "120635.407500", "120637.415000", "120639.425000", "120641.432500", "120643.440000", "120645.447500", "120647.457500", "120649.465000", "120651.472500", "120653.480000", "120655.487500", "120657.497500", "120659.505000", "120701.512500", "120703.520000", "120705.527500", "120707.537500", "120709.545000", "120711.552500", "120713.560000", "120715.570000", "120717.577500", "120719.585000", "120721.592500", "120723.600000", "120725.610000", "120727.617500", "120729.625000", "120731.632500", "120733.640000", "120735.650000", "120737.657500", "120739.665000", "120741.672500", "120743.680000", "120745.690000", "120747.697500", "120749.705000", "120751.712500", "120753.722500", "120755.730000", "120757.737500", "120759.745000", "120801.752500", "120803.762500", "120805.770000", "120807.777500", "120809.785000", "120811.792500", "120813.802500", "120815.810000", "120817.817500", "120819.825000", "120821.835000", "120823.842500", "120825.850000", "120827.857500", "120829.865000", "120831.875000", "120833.882500", "120835.890000", "120837.897500", "120839.905000", "120841.915000", "120843.922500", "120845.930000", "120847.937500", "120849.947500", "120851.955000", "120853.962500", "120855.970000", "120857.977500", "120859.987500", "120901.995000", "120904.002500", "120906.010000", "120908.017500", "120910.027500", "120912.035000", "120914.042500", "120916.050000", "120918.057500", "120920.067500", "120922.075000", "120924.082500", "120926.090000", "120928.100000", "120930.107500", "120932.115000", "120934.122500", "120936.130000", "120938.140000", "120940.147500", "120942.155000", "120944.162500", "120946.170000", "120948.180000", "120950.187500", "120952.195000", "120954.202500", "120956.212500", "120958.220000", "121000.227500", "121002.235000", "121004.242500", "121006.252500", "121008.260000", "121010.267500", "121012.275000", "121014.282500", "121016.292500", "121018.300000", "121020.307500", "121022.315000", "121024.325000", "121026.332500", "121028.340000", "121030.347500", "121032.355000", "121034.365000", "121036.372500", "121038.380000", "121040.387500", "121042.395000", "121044.405000", "121046.412500", "121048.420000", "121050.427500", "121052.437500", "121054.445000", "121056.452500", "121058.460000", "121100.467500", "121102.477500", "121104.485000", "121106.492500", "121108.500000", "121110.507500", "121112.517500", "121114.525000", "121116.532500", "121118.540000", "121120.547500", "121122.557500", "121124.565000", "121126.572500", "121128.580000", "121130.590000", "121132.597500", "121134.605000", "121136.612500", "121138.620000", "121140.630000", "121142.637500", "121144.645000", "121146.652500", "121148.660000", "121150.670000", "121152.677500", "121154.685000", "121156.692500", "121158.702500", "121200.710000", "121202.717500", "121204.725000", "121206.732500", "121208.742500", "121210.750000", "121212.757500", "121214.765000", "121216.772500", "121218.782500", "121220.790000", "121222.797500", "121224.805000", "121226.815000", "121228.822500", "121230.830000", "121232.837500", "121234.845000", "121236.855000", "121238.862500", "121240.870000", "121242.877500", "121244.885000", "121246.895000", "121248.902500", "121250.910000", "121252.917500", "121254.925000", "121256.935000", "121258.942500", "121300.950000", "121302.957500", "121304.967500", "121306.975000", "121308.982500", "121310.990000", "121312.997500", "121315.007500", "121317.015000", "121319.022500", "121321.030000", "121323.037500", "121325.047500", "121327.055000", "121329.062500", "121331.070000", "121333.080000", "121335.087500", "121337.095000", "121339.102500", "121341.110000", "121343.120000", "121345.127500", "121347.135000", "121349.142500", "121351.150000", "121353.160000", "121355.167500", "121357.175000"],
      "ContentTime": ["120400.546000", "120402.546000", "120404.546000", "120406.546000", "120408.546000", "120410.546000", "120412.546000", "120414.546000", "120416.546000", "120418.546000", "120420.546000", "120422.546000", "120424.546000", "120426.546000", "120428.546000", "120430.546000", "120432.546000", "120434.546000", "120436.546000", "120438.546000", "120440.546000", "120442.546000", "120444.546000", "120446.546000", "120448.546000", "120450.546000", "120452.546000", "120454.546000", "120456.546000", "120458.546000", "120500.546000", "120502.546000", "120504.546000", "120506.546000", "120508.546000", "120510.546000", "120512.546000", "120514.546000", "120516.546000", "120518.546000", "120520.546000", "120522.546000", "120524.562000", "120526.546000", "120528.546000", "120530.546000", "120532.546000", "120534.546000", "120536.546000", "120538.546000", "120540.546000", "120542.546000", "120544.546000", "120546.546000", "120548.546000", "120550.546000", "120552.546000", "120554.546000", "120556.546000", "120558.546000", "120600.546000", "120602.546000", "120604.546000", "120606.546000", "120608.546000", "120610.546000", "120612.546000", "120614.546000", "120616.546000", "120618.546000", "120620.546000", "120622.546000", "120624.546000", "120626.546000", "120628.546000", "120630.546000", "120632.546000", "120634.546000", "120636.546000", "120638.546000", "120640.546000", "120642.546000", "120644.546000", "120646.546000", "120648.546000", "120650.546000", "120652.546000", "120654.546000", "120656.546000", "120658.546000", "120700.546000", "120702.546000", "120704.546000", "120706.546000", "120708.546000", "120710.546000", "120712.546000", "120714.546000", "120716.546000", "120718.546000", "120720.546000", "120722.546000", "120724.546000", "120726.546000", "120728.546000", "120730.546000", "120732.546000", "120734.546000", "120736.546000", "120738.546000", "120740.546000", "120742.546000", "120744.546000", "120746.546000", "120748.546000", "120750.546000", "120752.546000", "120754.546000", "120756.546000", "120758.546000", "120800.546000", "120802.546000", "120804.546000", "120806.546000", "120808.546000", "120810.546000", "120812.546000", "120814.546000", "120816.546000", "120818.546000", "120820.546000", "120822.546000", "120824.546000", "120826.546000", "120828.546000", "120830.546000", "120832.546000", "120834.546000", "120836.546000", "120838.546000", "120840.546000", "120842.546000", "120844.546000", "120846.546000", "120848.546000", "120850.546000", "120852.546000", "120854.546000", "120856.546000", "120858.546000", "120900.546000", "120902.546000", "120904.546000", "120906.546000", "120908.546000", "120910.546000", "120912.546000", "120914.546000", "120916.546000", "120918.546000", "120920.546000", "120922.546000", "120924.546000", "120926.546000", "120928.546000", "120930.546000", "120932.546000", "120934.546000", "120936.546000", "120938.546000", "120940.546000", "120942.546000", "120944.546000", "120946.546000", "120948.546000", "120950.546000", "120952.546000", "120954.546000", "120956.546000", "120958.546000", "121000.546000", "121002.546000", "121004.546000", "121006.546000", "121008.546000", "121010.546000", "121012.546000", "121014.546000", "121016.546000", "121018.546000", "121020.546000", "121022.546000", "121024.546000", "121026.546000", "121028.546000", "121030.546000", "121032.546000", "121034.546000", "121036.546000", "121038.546000", "121040.546000", "121042.546000", "121044.546000", "121046.546000", "121048.546000", "121050.546000", "121052.546000", "121054.546000", "121056.546000", "121058.546000", "121100.546000", "121102.546000", "121104.546000", "121106.546000", "121108.546000", "121110.546000", "121112.546000", "121114.546000", "121116.546000", "121118.546000", "121120.546000", "121122.546000", "121124.546000", "121126.546000", "121128.546000", "121130.546000", "121132.546000", "121134.546000", "121136.546000", "121138.546000", "121140.546000", "121142.546000", "121144.546000", "121146.546000", "121148.546000", "121150.546000", "121152.546000", "121154.546000", "121156.546000", "121158.546000", "121200.546000", "121202.546000", "121204.546000", "121206.546000", "121208.546000", "121210.546000", "121212.546000", "121214.546000", "121216.546000", "121218.546000", "121220.546000", "121222.546000", "121224.546000", "121226.546000", "121228.546000", "121230.546000", "121232.546000", "121234.546000", "121236.546000", "121238.546000", "121240.546000", "121242.546000", "121244.546000", "121246.546000", "121248.546000", "121250.546000", "121252.546000", "121254.546000", "121256.546000", "121258.546000", "121300.546000", "121302.546000", "121304.546000", "121306.546000", "121308.546000", "121310.546000", "121312.546000", "121314.546000", "121316.546000", "121318.546000", "121320.546000", "121322.546000", "121324.546000", "121326.546000", "121328.546000", "121330.546000", "121332.546000", "121334.546000", "121336.546000", "121338.546000", "121340.546000", "121342.546000", "121344.546000", "121346.546000", "121348.546000", "121350.546000", "121352.546000", "121354.546000", "121356.546000", "121358.171000"],
      "InstanceCreationTime": ["120400.546000", "120402.546000", "120404.546000", "120406.546000", "120408.546000", "120410.546000", "120412.546000", "120414.546000", "120416.546000", "120418.546000", "120420.546000", "120422.546000", "120424.546000", "120426.546000", "120428.546000", "120430.546000", "120432.546000", "120434.546000", "120436.546000", "120438.546000", "120440.546000", "120442.546000", "120444.546000", "120446.546000", "120448.546000", "120450.546000", "120452.546000", "120454.546000", "120456.546000", "120458.546000", "120500.546000", "120502.546000", "120504.546000", "120506.546000", "120508.546000", "120510.546000", "120512.546000", "120514.546000", "120516.546000", "120518.546000", "120520.546000", "120522.546000", "120524.562000", "120526.546000", "120528.546000", "120530.546000", "120532.546000", "120534.546000", "120536.546000", "120538.546000", "120540.546000", "120542.546000", "120544.546000", "120546.546000", "120548.546000", "120550.546000", "120552.546000", "120554.546000", "120556.546000", "120558.546000", "120600.546000", "120602.546000", "120604.546000", "120606.546000", "120608.546000", "120610.546000", "120612.546000", "120614.546000", "120616.546000", "120618.546000", "120620.546000", "120622.546000", "120624.546000", "120626.546000", "120628.546000", "120630.546000", "120632.546000", "120634.546000", "120636.546000", "120638.546000", "120640.546000", "120642.546000", "120644.546000", "120646.546000", "120648.546000", "120650.546000", "120652.546000", "120654.546000", "120656.546000", "120658.546000", "120700.546000", "120702.546000", "120704.546000", "120706.546000", "120708.546000", "120710.546000", "120712.546000", "120714.546000", "120716.546000", "120718.546000", "120720.546000", "120722.546000", "120724.546000", "120726.546000", "120728.546000", "120730.546000", "120732.546000", "120734.546000", "120736.546000", "120738.546000", "120740.546000", "120742.546000", "120744.546000", "120746.546000", "120748.546000", "120750.546000", "120752.546000", "120754.546000", "120756.546000", "120758.546000", "120800.546000", "120802.546000", "120804.546000", "120806.546000", "120808.546000", "120810.546000", "120812.546000", "120814.546000", "120816.546000", "120818.546000", "120820.546000", "120822.546000", "120824.546000", "120826.546000", "120828.546000", "120830.546000", "120832.546000", "120834.546000", "120836.546000", "120838.546000", "120840.546000", "120842.546000", "120844.546000", "120846.546000", "120848.546000", "120850.546000", "120852.546000", "120854.546000", "120856.546000", "120858.546000", "120900.546000", "120902.546000", "120904.546000", "120906.546000", "120908.546000", "120910.546000", "120912.546000", "120914.546000", "120916.546000", "120918.546000", "120920.546000", "120922.546000", "120924.546000", "120926.546000", "120928.546000", "120930.546000", "120932.546000", "120934.546000", "120936.546000", "120938.546000", "120940.546000", "120942.546000", "120944.546000", "120946.546000", "120948.546000", "120950.546000", "120952.546000", "120954.546000", "120956.546000", "120958.546000", "121000.546000", "121002.546000", "121004.546000", "121006.546000", "121008.546000", "121010.546000", "121012.546000", "121014.546000", "121016.546000", "121018.546000", "121020.546000", "121022.546000", "121024.546000", "121026.546000", "121028.546000", "121030.546000", "121032.546000", "121034.546000", "121036.546000", "121038.546000", "121040.546000", "121042.546000", "121044.546000", "121046.546000", "121048.546000", "121050.546000", "121052.546000", "121054.546000", "121056.546000", "121058.546000", "121100.546000", "121102.546000", "121104.546000", "121106.546000", "121108.546000", "121110.546000", "121112.546000", "121114.546000", "121116.546000", "121118.546000", "121120.546000", "121122.546000", "121124.546000", "121126.546000", "121128.546000", "121130.546000", "121132.546000", "121134.546000", "121136.546000", "121138.546000", "121140.546000", "121142.546000", "121144.546000", "121146.546000", "121148.546000", "121150.546000", "121152.546000", "121154.546000", "121156.546000", "121158.546000", "121200.546000", "121202.546000", "121204.546000", "121206.546000", "121208.546000", "121210.546000", "121212.546000", "121214.546000", "121216.546000", "121218.546000", "121220.546000", "121222.546000", "121224.546000", "121226.546000", "121228.546000", "121230.546000", "121232.546000", "121234.546000", "121236.546000", "121238.546000", "121240.546000", "121242.546000", "121244.546000", "121246.546000", "121248.546000", "121250.546000", "121252.546000", "121254.546000", "121256.546000", "121258.546000", "121300.546000", "121302.546000", "121304.546000", "121306.546000", "121308.546000", "121310.546000", "121312.546000", "121314.546000", "121316.546000", "121318.546000", "121320.546000", "121322.546000", "121324.546000", "121326.546000", "121328.546000", "121330.546000", "121332.546000", "121334.546000", "121336.546000", "121338.546000", "121340.546000", "121342.546000", "121344.546000", "121346.546000", "121348.546000", "121350.546000", "121352.546000", "121354.546000", "121356.546000", "121358.171000"],
      "InstanceNumber": [1, 2, 3, 4, 5, 6, 7, 8, 9, 10, 11, 12, 13, 14, 15, 16, 17, 18, 19, 20, 21, 22, 23, 24, 25, 26, 27, 28, 29, 30, 31, 32, 33, 34, 35, 36, 37, 38, 39, 40, 41, 42, 43, 44, 45, 46, 47, 48, 49, 50, 51, 52, 53, 54, 55, 56, 57, 58, 59, 60, 61, 62, 63, 64, 65, 66, 67, 68, 69, 70, 71, 72, 73, 74, 75, 76, 77, 78, 79, 80, 81, 82, 83, 84, 85, 86, 87, 88, 89, 90, 91, 92, 93, 94, 95, 96, 97, 98, 99, 100, 101, 102, 103, 104, 105, 106, 107, 108, 109, 110, 111, 112, 113, 114, 115, 116, 117, 118, 119, 120, 121, 122, 123, 124, 125, 126, 127, 128, 129, 130, 131, 132, 133, 134, 135, 136, 137, 138, 139, 140, 141, 142, 143, 144, 145, 146, 147, 148, 149, 150, 151, 152, 153, 154, 155, 156, 157, 158, 159, 160, 161, 162, 163, 164, 165, 166, 167, 168, 169, 170, 171, 172, 173, 174, 175, 176, 177, 178, 179, 180, 181, 182, 183, 184, 185, 186, 187, 188, 189, 190, 191, 192, 193, 194, 195, 196, 197, 198, 199, 200, 201, 202, 203, 204, 205, 206, 207, 208, 209, 210, 211, 212, 213, 214, 215, 216, 217, 218, 219, 220, 221, 222, 223, 224, 225, 226, 227, 228, 229, 230, 231, 232, 233, 234, 235, 236, 237, 238, 239, 240, 241, 242, 243, 244, 245, 246, 247, 248, 249, 250, 251, 252, 253, 254, 255, 256, 257, 258, 259, 260, 261, 262, 263, 264, 265, 266, 267, 268, 269, 270, 271, 272, 273, 274, 275, 276, 277, 278, 279, 280, 281, 282, 283, 284, 285, 286, 287, 288, 289, 290, 291, 292, 293, 294, 295, 296, 297, 298, 299, 300],
      "LargestImagePixelValue": [1411, 1420, 1437, 1438, 1425, 1437, 1456, 1426, 1434, 1436, 1447, 1432, 1433, 1435, 1451, 1472, 1466, 1457, 1495, 1452, 1499, 1456, 1474, 1441, 1452, 1464, 1431, 1457, 1478, 1514, 1487, 1484, 1429, 1446, 1389, 1428, 1388, 1505, 1477, 1492, 1520, 1452, 1408, 1434, 1434, 1486, 1451, 1443, 1433, 1416, 1475, 1500, 1577, 1476, 1414, 1415, 1404, 1416, 1404, 1452, 1419, 1420, 1454, 1435, 1526, 1428, 1438, 1506, 1502, 1501, 1485, 1429, 1444, 1446, 1431, 1445, 1419, 1430, 1436, 1418, 1411, 1416, 1395, 1392, 1473, 1451, 1501, 1443, 1461, 1505, 1490, 1482, 1460, 1445, 1454, 1431, 1465, 1449, 1414, 1408, 1423, 1409, 1456, 1426, 1439, 1429, 1456, 1482, 1497, 1434, 1442, 1504, 1462, 1452, 1438, 1426, 1444, 1418, 1418, 1415, 1425, 1407, 1432, 1503, 1416, 1436, 1428, 1470, 1462, 1474, 1493, 1463, 1432, 1437, 1450, 1489, 1532, 1488, 1484, 1429, 1456, 1417, 1453, 1471, 1439, 1405, 1442, 1455, 1488, 1477, 1439, 1424, 1458, 1443, 1445, 1429, 1452, 1444, 1471, 1456, 1482, 1524, 1448, 1440, 1440, 1445, 1439, 1438, 1453, 1453, 1442, 1452, 1439, 1435, 1441, 1448, 1461, 1456, 1450, 1467, 1429, 1439, 1453, 1476, 1470, 1458, 1420, 1474, 1443, 1426, 1442, 1434, 1433, 1434, 1451, 1449, 1466, 1471, 1467, 1439, 1437, 1437, 1442, 1438, 1455, 1432, 1468, 1479, 1471, 1494, 1458, 1466, 1515, 1475, 1447, 1439, 1455, 1438, 1458, 1442, 1420, 1441, 1436, 1472, 1443, 1463, 1458, 1455, 1478, 1460, 1450, 1467, 1446, 1474, 1450, 1449, 1434, 1467, 1431, 1451, 1434, 1430, 1433, 1443, 1436, 1430, 1456, 1467, 1450, 1435, 1422, 1469, 1435, 1441, 1441, 1442, 1449, 1442, 1436, 1437, 1437, 1439, 1441, 1440, 1432, 1435, 1425, 1447, 1435, 1448, 1437, 1446, 1445, 1445, 1474, 1462, 1448, 1449, 1429, 1441, 1444, 1448, 1431, 1436, 1431, 1434, 1427, 1434, 1413, 1418, 1418, 1417, 1422, 1420, 1430, 1430, 1434, 1425, 1417, 1416],
      "WindowCenter": [629.0, 628.0, 630.0, 629.0, 628.0, 628.0, 629.0, 628.0, 628.0, 628.0, 628.0, 628.0, 628.0, 629.0, 630.0, 631.0, 631.0, 630.0, 630.0, 629.0, 630.0, 629.0, 630.0, 629.0, 629.0, 629.0, 630.0, 629.0, 630.0, 631.0, 630.0, 630.0, 629.0, 629.0, 628.0, 629.0, 629.0, 630.0, 630.0, 631.0, 631.0, 630.0, 628.0, 629.0, 630.0, 630.0, 630.0, 630.0, 629.0, 630.0, 631.0, 631.0, 632.0, 630.0, 629.0, 629.0, 629.0, 630.0, 629.0, 630.0, 629.0, 629.0, 631.0, 631.0, 631.0, 630.0, 630.0, 631.0, 631.0, 631.0, 630.0, 629.0, 630.0, 629.0, 629.0, 630.0, 630.0, 630.0, 629.0, 630.0, 629.0, 630.0, 629.0, 629.0, 630.0, 630.0, 631.0, 631.0, 631.0, 631.0, 630.0, 629.0, 630.0, 630.0, 630.0, 629.0, 629.0, 628.0, 628.0, 627.0, 628.0, 628.0, 629.0, 628.0, 629.0, 629.0, 630.0, 629.0, 629.0, 628.0, 629.0, 630.0, 630.0, 629.0, 628.0, 628.0, 629.0, 628.0, 628.0, 628.0, 629.0, 628.0, 629.0, 629.0, 628.0, 628.0, 629.0, 630.0, 630.0, 630.0, 630.0, 629.0, 629.0, 629.0, 631.0, 631.0, 631.0, 629.0, 629.0, 629.0, 629.0, 629.0, 629.0, 630.0, 629.0, 628.0, 629.0, 630.0, 630.0, 630.0, 629.0, 629.0, 629.0, 629.0, 629.0, 630.0, 629.0, 630.0, 631.0, 631.0, 632.0, 631.0, 630.0, 629.0, 629.0, 629.0, 630.0, 630.0, 630.0, 630.0, 629.0, 629.0, 629.0, 628.0, 629.0, 629.0, 629.0, 629.0, 629.0, 629.0, 629.0, 629.0, 630.0, 631.0, 631.0, 630.0, 629.0, 630.0, 629.0, 629.0, 629.0, 630.0, 629.0, 629.0, 629.0, 629.0, 629.0, 630.0, 630.0, 629.0, 629.0, 629.0, 629.0, 629.0, 630.0, 629.0, 630.0, 631.0, 631.0, 630.0, 630.0, 630.0, 630.0, 629.0, 629.0, 629.0, 629.0, 629.0, 629.0, 630.0, 628.0, 628.0, 629.0, 630.0, 630.0, 630.0, 630.0, 629.0, 630.0, 629.0, 630.0, 631.0, 630.0, 630.0, 630.0, 629.0, 629.0, 630.0, 630.0, 629.0, 628.0, 629.0, 629.0, 628.0, 629.0, 628.0, 629.0, 629.0, 629.0, 629.0, 629.0, 630.0, 629.0, 629.0, 629.0, 630.0, 630.0, 629.0, 629.0, 629.0, 628.0, 628.0, 628.0, 629.0, 628.0, 629.0, 629.0, 629.0, 629.0, 629.0, 629.0, 629.0, 630.0, 629.0, 630.0, 630.0, 629.0, 629.0, 629.0, 630.0, 630.0, 629.0, 630.0, 630.0, 630.0, 629.0, 629.0, 629.0, 629.0, 629.0, 629.0, 628.0, 629.0, 628.0, 629.0, 629.0, 629.0, 629.0, 629.0, 629.0],
      "WindowWidth": [1339.0, 1337.0, 1340.0, 1338.0, 1336.0, 1335.0, 1339.0, 1337.0, 1336.0, 1336.0, 1337.0, 1336.0, 1336.0, 1338.0, 1340.0, 1342.0, 1343.0, 1341.0, 1341.0, 1338.0, 1340.0, 1339.0, 1340.0, 1338.0, 1339.0, 1339.0, 1340.0, 1339.0, 1341.0, 1343.0, 1341.0, 1341.0, 1338.0, 1339.0, 1337.0, 1339.0, 1338.0, 1342.0, 1342.0, 1344.0, 1343.0, 1342.0, 1337.0, 1339.0, 1340.0, 1341.0, 1341.0, 1340.0, 1339.0, 1341.0, 1344.0, 1344.0, 1345.0, 1340.0, 1339.0, 1339.0, 1339.0, 1340.0, 1340.0, 1341.0, 1338.0, 1339.0, 1345.0, 1344.0, 1343.0, 1342.0, 1341.0, 1344.0, 1343.0, 1343.0, 1341.0, 1339.0, 1340.0, 1339.0, 1338.0, 1341.0, 1341.0, 1340.0, 1339.0, 1340.0, 1340.0, 1341.0, 1340.0, 1339.0, 1340.0, 1341.0, 1342.0, 1343.0, 1343.0, 1342.0, 1341.0, 1338.0, 1340.0, 1340.0, 1341.0, 1339.0, 1339.0, 1337.0, 1336.0, 1334.0, 1335.0, 1335.0, 1338.0, 1336.0, 1339.0, 1340.0, 1340.0, 1339.0, 1338.0, 1336.0, 1339.0, 1341.0, 1341.0, 1338.0, 1336.0, 1336.0, 1338.0, 1336.0, 1336.0, 1336.0, 1338.0, 1336.0, 1337.0, 1337.0, 1335.0, 1336.0, 1338.0, 1341.0, 1340.0, 1340.0, 1340.0, 1340.0, 1339.0, 1338.0, 1343.0, 1344.0, 1344.0, 1339.0, 1339.0, 1338.0, 1338.0, 1338.0, 1337.0, 1340.0, 1340.0, 1337.0, 1339.0, 1340.0, 1342.0, 1341.0, 1339.0, 1339.0, 1338.0, 1338.0, 1339.0, 1341.0, 1340.0, 1340.0, 1343.0, 1343.0, 1345.0, 1344.0, 1340.0, 1339.0, 1339.0, 1339.0, 1340.0, 1340.0, 1340.0, 1340.0, 1338.0, 1337.0, 1338.0, 1337.0, 1339.0, 1339.0, 1338.0, 1337.0, 1338.0, 1338.0, 1338.0, 1337.0, 1341.0, 1343.0, 1343.0, 1341.0, 1339.0, 1340.0, 1339.0, 1339.0, 1339.0, 1340.0, 1339.0, 1339.0, 1339.0, 1339.0, 1339.0, 1341.0, 1340.0, 1338.0, 1338.0, 1337.0, 1338.0, 1339.0, 1341.0, 1339.0, 1341.0, 1343.0, 1342.0, 1342.0, 1342.0, 1341.0, 1340.0, 1339.0, 1339.0, 1339.0, 1339.0, 1338.0, 1339.0, 1340.0, 1337.0, 1337.0, 1339.0, 1340.0, 1341.0, 1341.0, 1340.0, 1339.0, 1341.0, 1339.0, 1341.0, 1343.0, 1341.0, 1340.0, 1340.0, 1339.0, 1339.0, 1340.0, 1340.0, 1339.0, 1337.0, 1338.0, 1337.0, 1337.0, 1338.0, 1336.0, 1339.0, 1339.0, 1339.0, 1338.0, 1338.0, 1341.0, 1338.0, 1338.0, 1339.0, 1341.0, 1340.0, 1339.0, 1337.0, 1338.0, 1336.0, 1336.0, 1337.0, 1337.0, 1337.0, 1339.0, 1338.0, 1339.0, 1338.0, 1338.0, 1340.0, 1339.0, 1340.0, 1339.0, 1342.0, 1340.0, 1339.0, 1338.0, 1339.0, 1342.0, 1342.0, 1339.0, 1340.0, 1340.0, 1340.0, 1339.0, 1340.0, 1338.0, 1338.0, 1338.0, 1338.0, 1337.0, 1337.0, 1337.0, 1338.0, 1339.0, 1339.0, 1338.0, 1339.0, 1339.0]
    },
