{
  "AcquisitionMatrixPE": 64,
  "AcquisitionNumber": 1,
  "AcquisitionTime": "16:42:3.810000",
  "BandwidthPerPixelPhaseEncode": 31.25,
  "BaseResolution": 64,
  "CoilCombinationMethod": "Sum of Squares",
  "CoilString": "C:HEA;HEP",
  "ConversionSoftware": "dcm2niix",
  "ConversionSoftwareVersion": "v1.0.20211006",
  "DerivedVendorReportedEchoSpacing": 0.0005,
  "DeviceSerialNumber": "35377",
  "DwellTime": 3.4e-06,
  "EchoTime": 0.03,
  "EffectiveEchoSpacing": 0.0005,
  "FlipAngle": 90,
  "ImageOrientationPatientDICOM": [0.997014, -0.0764928, 0.010596, 0.076716, 0.996798, -0.0225657],
  "ImageOrientationText": "Tra>Cor(-1.3)>Sag(0.5)",
  "ImageType": [
    "ORIGINAL",
    "PRIMARY",
    "M",
    "ND",
    "MOSAIC"
],
  "ImagingFrequency": 123.256,
  "InPlanePhaseEncodingDirectionDICOM": "COL",
  "InstitutionAddress": "Azinhaga Santa Comba StreetNo,Coimbra,District,PT,3000",
  "InstitutionName": "IBILI",
  "InstitutionalDepartmentName": "Department",
  "MRAcquisitionType": "2D",
  "MagneticFieldStrength": 3,
  "Manufacturer": "Siemens",
  "ManufacturersModelName": "TrioTim",
  "MatrixCoilMode": "SENSE",
  "Modality": "MR",
  "PartialFourier": 1,
  "PatientPosition": "HFS",
  "PercentPhaseFOV": 100,
  "PercentSampling": 100,
  "PhaseEncodingDirection": "j-",
  "PhaseEncodingSteps": 64,
  "PhaseResolution": 1,
  "PixelBandwidth": 2298,
  "ProcedureStepDescription": "Unknown",
  "ProtocolName": "rtfmri_neurofeedback_AvatarVisual",
  "PulseSequenceDetails": "%SiemensSeq%\\ep2d_bold",
  "ReceiveCoilName": "HeadMatrix",
  "ReconMatrixPE": 64,
  "RepetitionTime": 2,
  "SAR": 0.171957,
  "ScanOptions": "FS",
  "ScanningSequence": "EP",
  "SequenceName": "*epfid2d1_64",
  "SequenceVariant": "SK",
  "SeriesDescription": "rtfmri_neurofeedback_AvatarVisual",
  "SeriesNumber": 5,
  "ShimSetting": [15842, 7515, 21329, 629, 355, -456, 480, -24],
  "SliceThickness": 3,
  "SliceTiming": [0, 1.035, 0.06, 1.095, 0.1225, 1.155, 0.1825, 1.2175, 0.2425, 1.2775, 0.305, 1.3375, 0.365, 1.4, 0.425, 1.46, 0.4875, 1.52, 0.5475, 1.5825, 0.6075, 1.6425, 0.67, 1.7025, 0.73, 1.765, 0.79, 1.825, 0.8525, 1.885, 0.9125, 1.9475, 0.9725],
  "SoftwareVersions": "syngo MR B17",
  "SpacingBetweenSlices": 3,
  "StationName": "MRC35377",
  "TaskName": "visualfeedback",
  "TotalReadoutTime": 0.0315,
  "TxRefAmp": 385.259,
  "dcmmeta_affine": [
    [-3.9880552291870117, 0.30686408281326294, 0.026507752016186714, 120.48240661621094],
    [0.3059711754322052, 3.9871904850006104, -0.06993365287780762, -97.48936462402344],
    [0.04238386079668999, 0.09026288241147995, 2.999067783355713, -48.957489013671875],
    [0.0, 0.0, 0.0, 1.0]
],
  "dcmmeta_reorient_transform": [
    [0.0, -1.0, 0.0, 63.0],
    [1.0, 0.0, 0.0, 0.0],
    [0.0, 0.0, 1.0, 0.0],
    [0.0, 0.0, 0.0, 1.0]
],
  "dcmmeta_shape": [64, 64, 33, 300],
  "dcmmeta_slice_dim": 2,
  "dcmmeta_version": 0.6,
  "global": {
    "const": {
      "AccessionNumber": "GNF20150313-0549",
      "AcquisitionMatrix": [64, 0, 0, 64],
      "Allergies": "MEDALERGIESL",
      "AngioFlag": "N",
      "BitsAllocated": 16,
      "BitsStored": 12,
      "Columns": 384,
      "EchoNumbers": 1,
      "EchoTime": 30.0,
      "EchoTrainLength": 1,
      "FlipAngle": 90.0,
      "HighBit": 11,
      "ImageOrientationPatient": [0.99701383062214, -0.0764927910112, 0.0105959648679, 0.07671602253819, 0.99679759234945, -0.0225657211773],
      "ImagePositionPatient": [-827.00194669888, -742.69870473732, -35.610281963983],
      "ImageType": [
        "ORIGINAL",
        "PRIMARY",
        "M",
        "ND",
        "MOSAIC"
],
      "ImagedNucleus": "1H",
      "ImagingFrequency": 123.255625,
      "InPlanePhaseEncodingDirection": "COL",
      "MRAcquisitionType": "2D",
      "MagneticFieldStrength": 3.0,
      "Manufacturer": "SIEMENS",
      "ManufacturerModelName": "TrioTim",
      "MedicalAlerts": "MEDALERTS",
      "Modality": "MR",
      "NumberOfAverages": 1.0,
      "NumberOfPhaseEncodingSteps": 64,
      "PercentPhaseFieldOfView": 100.0,
      "PercentSampling": 100.0,
      "PerformedProcedureStepStartTime": "161045.781000",
      "PhotometricInterpretation": "MONOCHROME2",
      "PixelBandwidth": 2298.0,
      "PixelRepresentation": 0,
      "PixelSpacing": [4.0, 4.0],
      "ProtocolName": "rtfmri_neurofeedback_AvatarVisual",
      "RepetitionTime": 2000.0,
      "RequestAttributesSequence": [
        {
          "RequestedProcedureID": "112b543c-70a8-4e",
          "ScheduledProcedureStepDescription": "Unknown",
          "ScheduledProcedureStepID": "112b543c-70a8-4e"
        }
],
      "Rows": 384,
      "SAR": 0.17195687270087,
      "SamplesPerPixel": 1,
      "ScanOptions": "FS",
      "ScanningSequence": "EP",
      "SequenceName": "*epfid2d1_64",
      "SequenceVariant": "SK",
      "SeriesDescription": "rtfmri_neurofeedback_AvatarVisual",
      "SeriesNumber": 5,
      "SeriesTime": "164207.281000",
      "SliceLocation": -45.605104026427,
      "SliceThickness": 3.0,
      "SmallestImagePixelValue": 0,
      "SoftwareVersions": "syngo MR B17",
      "SpacingBetweenSlices": 3.0000000384586,
      "SpecificCharacterSet": "ISO_IR 100",
      "StudyID": "112b543c-70a8-4e",
      "StudyTime": "161045.718000",
      "TransmitCoilName": "Body",
      "VariableFlipAngleFlag": "N",
      "WindowCenterWidthExplanation": "Algo1",
      "dBdt": 0.0},
    "slices": {}
  },
  "time": {
    "samples": {
      "AcquisitionNumber": [1, 2, 3, 4, 5, 6, 7, 8, 9, 10, 11, 12, 13, 14, 15, 16, 17, 18, 19, 20, 21, 22, 23, 24, 25, 26, 27, 28, 29, 30, 31, 32, 33, 34, 35, 36, 37, 38, 39, 40, 41, 42, 43, 44, 45, 46, 47, 48, 49, 50, 51, 52, 53, 54, 55, 56, 57, 58, 59, 60, 61, 62, 63, 64, 65, 66, 67, 68, 69, 70, 71, 72, 73, 74, 75, 76, 77, 78, 79, 80, 81, 82, 83, 84, 85, 86, 87, 88, 89, 90, 91, 92, 93, 94, 95, 96, 97, 98, 99, 100, 101, 102, 103, 104, 105, 106, 107, 108, 109, 110, 111, 112, 113, 114, 115, 116, 117, 118, 119, 120, 121, 122, 123, 124, 125, 126, 127, 128, 129, 130, 131, 132, 133, 134, 135, 136, 137, 138, 139, 140, 141, 142, 143, 144, 145, 146, 147, 148, 149, 150, 151, 152, 153, 154, 155, 156, 157, 158, 159, 160, 161, 162, 163, 164, 165, 166, 167, 168, 169, 170, 171, 172, 173, 174, 175, 176, 177, 178, 179, 180, 181, 182, 183, 184, 185, 186, 187, 188, 189, 190, 191, 192, 193, 194, 195, 196, 197, 198, 199, 200, 201, 202, 203, 204, 205, 206, 207, 208, 209, 210, 211, 212, 213, 214, 215, 216, 217, 218, 219, 220, 221, 222, 223, 224, 225, 226, 227, 228, 229, 230, 231, 232, 233, 234, 235, 236, 237, 238, 239, 240, 241, 242, 243, 244, 245, 246, 247, 248, 249, 250, 251, 252, 253, 254, 255, 256, 257, 258, 259, 260, 261, 262, 263, 264, 265, 266, 267, 268, 269, 270, 271, 272, 273, 274, 275, 276, 277, 278, 279, 280, 281, 282, 283, 284, 285, 286, 287, 288, 289, 290, 291, 292, 293, 294, 295, 296, 297, 298, 299, 300],
      "AcquisitionTime": ["164203.810000", "164205.817500", "164207.825000", "164209.835000", "164211.842500", "164213.850000", "164215.857500", "164217.865000", "164219.875000", "164221.882500", "164223.890000", "164225.897500", "164227.905000", "164229.915000", "164231.922500", "164233.930000", "164235.937500", "164237.947500", "164239.955000", "164241.962500", "164243.970000", "164245.977500", "164247.987500", "164249.995000", "164252.002500", "164254.010000", "164256.017500", "164258.027500", "164300.035000", "164302.042500", "164304.050000", "164306.060000", "164308.067500", "164310.075000", "164312.082500", "164314.090000", "164316.100000", "164318.107500", "164320.115000", "164322.122500", "164324.130000", "164326.140000", "164328.147500", "164330.155000", "164332.162500", "164334.170000", "164336.180000", "164338.187500", "164340.195000", "164342.202500", "164344.212500", "164346.220000", "164348.227500", "164350.235000", "164352.242500", "164354.252500", "164356.260000", "164358.267500", "164400.275000", "164402.282500", "164404.292500", "164406.300000", "164408.307500", "164410.315000", "164412.325000", "164414.332500", "164416.340000", "164418.347500", "164420.355000", "164422.365000", "164424.372500", "164426.380000", "164428.387500", "164430.395000", "164432.405000", "164434.412500", "164436.420000", "164438.427500", "164440.437500", "164442.445000", "164444.452500", "164446.460000", "164448.467500", "164450.477500", "164452.485000", "164454.492500", "164456.500000", "164458.507500", "164500.517500", "164502.525000", "164504.532500", "164506.540000", "164508.547500", "164510.557500", "164512.565000", "164514.572500", "164516.580000", "164518.590000", "164520.597500", "164522.605000", "164524.612500", "164526.620000", "164528.630000", "164530.637500", "164532.645000", "164534.652500", "164536.660000", "164538.670000", "164540.677500", "164542.685000", "164544.692500", "164546.702500", "164548.710000", "164550.717500", "164552.725000", "164554.732500", "164556.742500", "164558.750000", "164600.757500", "164602.765000", "164604.772500", "164606.782500", "164608.790000", "164610.797500", "164612.805000", "164614.815000", "164616.822500", "164618.830000", "164620.837500", "164622.845000", "164624.855000", "164626.862500", "164628.870000", "164630.877500", "164632.885000", "164634.895000", "164636.902500", "164638.910000", "164640.917500", "164642.925000", "164644.935000", "164646.942500", "164648.950000", "164650.957500", "164652.967500", "164654.975000", "164656.982500", "164658.990000", "164700.997500", "164703.007500", "164705.015000", "164707.022500", "164709.030000", "164711.037500", "164713.047500", "164715.055000", "164717.062500", "164719.070000", "164721.080000", "164723.087500", "164725.095000", "164727.102500", "164729.110000", "164731.120000", "164733.127500", "164735.135000", "164737.142500", "164739.150000", "164741.160000", "164743.167500", "164745.175000", "164747.182500", "164749.192500", "164751.200000", "164753.207500", "164755.215000", "164757.222500", "164759.232500", "164801.240000", "164803.247500", "164805.255000", "164807.262500", "164809.272500", "164811.280000", "164813.287500", "164815.295000", "164817.302500", "164819.312500", "164821.320000", "164823.327500", "164825.335000", "164827.345000", "164829.352500", "164831.360000", "164833.367500", "164835.375000", "164837.385000", "164839.392500", "164841.400000", "164843.407500", "164845.415000", "164847.425000", "164849.432500", "164851.440000", "164853.447500", "164855.457500", "164857.465000", "164859.472500", "164901.480000", "164903.487500", "164905.497500", "164907.505000", "164909.512500", "164911.520000", "164913.527500", "164915.537500", "164917.545000", "164919.552500", "164921.560000", "164923.570000", "164925.577500", "164927.585000", "164929.592500", "164931.600000", "164933.610000", "164935.617500", "164937.625000", "164939.632500", "164941.640000", "164943.650000", "164945.657500", "164947.665000", "164949.672500", "164951.682500", "164953.690000", "164955.697500", "164957.705000", "164959.712500", "165001.722500", "165003.730000", "165005.737500", "165007.745000", "165009.752500", "165011.762500", "165013.770000", "165015.777500", "165017.785000", "165019.792500", "165021.802500", "165023.810000", "165025.817500", "165027.825000", "165029.835000", "165031.842500", "165033.850000", "165035.857500", "165037.865000", "165039.875000", "165041.882500", "165043.890000", "165045.897500", "165047.905000", "165049.915000", "165051.922500", "165053.930000", "165055.937500", "165057.947500", "165059.955000", "165101.962500", "165103.970000", "165105.977500", "165107.987500", "165109.995000", "165112.002500", "165114.010000", "165116.017500", "165118.027500", "165120.035000", "165122.042500", "165124.050000", "165126.060000", "165128.067500", "165130.075000", "165132.082500", "165134.090000", "165136.100000", "165138.107500", "165140.115000", "165142.122500", "165144.130000", "165146.140000", "165148.147500", "165150.155000", "165152.162500", "165154.170000", "165156.180000", "165158.187500", "165200.195000", "165202.202500", "165204.212500"],
      "ContentTime": ["164207.281000", "164209.281000", "164211.281000", "164213.281000", "164215.281000", "164217.281000", "164219.281000", "164221.281000", "164223.281000", "164225.281000", "164227.281000", "164229.281000", "164231.281000", "164233.281000", "164235.281000", "164237.281000", "164239.281000", "164241.281000", "164243.281000", "164245.281000", "164247.265000", "164249.281000", "164251.281000", "164253.281000", "164255.281000", "164257.265000", "164259.281000", "164301.281000", "164303.281000", "164305.281000", "164307.265000", "164309.281000", "164311.265000", "164313.281000", "164315.281000", "164317.281000", "164319.281000", "164321.281000", "164323.281000", "164325.281000", "164327.281000", "164329.281000", "164331.281000", "164333.281000", "164335.281000", "164337.281000", "164339.281000", "164341.281000", "164343.281000", "164345.281000", "164347.281000", "164349.281000", "164351.265000", "164353.281000", "164355.265000", "164357.281000", "164359.281000", "164401.281000", "164403.281000", "164405.281000", "164407.281000", "164409.281000", "164411.281000", "164413.281000", "164415.281000", "164417.281000", "164419.281000", "164421.281000", "164423.265000", "164425.281000", "164427.281000", "164429.281000", "164431.281000", "164433.281000", "164435.281000", "164437.281000", "164439.281000", "164441.281000", "164443.281000", "164445.281000", "164447.281000", "164449.281000", "164451.281000", "164453.281000", "164455.281000", "164457.265000", "164459.281000", "164501.265000", "164503.281000", "164505.281000", "164507.281000", "164509.281000", "164511.281000", "164513.281000", "164515.281000", "164517.265000", "164519.281000", "164521.281000", "164523.281000", "164525.265000", "164527.281000", "164529.281000", "164531.265000", "164533.281000", "164535.281000", "164537.281000", "164539.281000", "164541.281000", "164543.281000", "164545.281000", "164547.281000", "164549.281000", "164551.281000", "164553.281000", "164555.281000", "164557.281000", "164559.281000", "164601.281000", "164603.281000", "164605.281000", "164607.265000", "164609.281000", "164611.281000", "164613.281000", "164615.281000", "164617.281000", "164619.265000", "164621.281000", "164623.281000", "164625.281000", "164627.281000", "164629.265000", "164631.281000", "164633.281000", "164635.281000", "164637.281000", "164639.281000", "164641.281000", "164643.281000", "164645.281000", "164647.281000", "164649.281000", "164651.281000", "164653.281000", "164655.281000", "164657.281000", "164659.281000", "164701.281000", "164703.281000", "164705.281000", "164707.281000", "164709.281000", "164711.281000", "164713.281000", "164715.281000", "164717.281000", "164719.281000", "164721.281000", "164723.281000", "164725.281000", "164727.281000", "164729.281000", "164731.281000", "164733.281000", "164735.281000", "164737.281000", "164739.281000", "164741.281000", "164743.281000", "164745.281000", "164747.281000", "164749.281000", "164751.281000", "164753.281000", "164755.281000", "164757.281000", "164759.281000", "164801.265000", "164803.281000", "164805.281000", "164807.281000", "164809.281000", "164811.281000", "164813.281000", "164815.281000", "164817.281000", "164819.281000", "164821.281000", "164823.281000", "164825.281000", "164827.281000", "164829.281000", "164831.281000", "164833.281000", "164835.281000", "164837.281000", "164839.281000", "164841.281000", "164843.281000", "164845.281000", "164847.281000", "164849.281000", "164851.281000", "164853.281000", "164855.281000", "164857.281000", "164859.281000", "164901.265000", "164903.281000", "164905.281000", "164907.281000", "164909.281000", "164911.281000", "164913.265000", "164915.281000", "164917.281000", "164919.281000", "164921.281000", "164923.281000", "164925.281000", "164927.281000", "164929.281000", "164931.281000", "164933.281000", "164935.281000", "164937.265000", "164939.281000", "164941.281000", "164943.281000", "164945.281000", "164947.281000", "164949.281000", "164951.265000", "164953.281000", "164955.281000", "164957.281000", "164959.281000", "165001.281000", "165003.281000", "165005.281000", "165007.281000", "165009.281000", "165011.281000", "165013.281000", "165015.281000", "165017.281000", "165019.281000", "165021.281000", "165023.281000", "165025.281000", "165027.281000", "165029.281000", "165031.281000", "165033.281000", "165035.281000", "165037.281000", "165039.281000", "165041.281000", "165043.281000", "165045.281000", "165047.281000", "165049.281000", "165051.281000", "165053.281000", "165055.281000", "165057.281000", "165059.281000", "165101.281000", "165103.281000", "165105.281000", "165107.281000", "165109.281000", "165111.281000", "165113.281000", "165115.281000", "165117.281000", "165119.281000", "165121.281000", "165123.281000", "165125.281000", "165127.281000", "165129.281000", "165131.281000", "165133.281000", "165135.281000", "165137.281000", "165139.281000", "165141.281000", "165143.281000", "165145.281000", "165147.281000", "165149.281000", "165151.281000", "165153.281000", "165155.281000", "165157.281000", "165159.281000", "165201.281000", "165203.281000", "165204.953000"],
      "InstanceCreationTime": ["164207.281000", "164209.281000", "164211.281000", "164213.281000", "164215.281000", "164217.281000", "164219.281000", "164221.281000", "164223.281000", "164225.281000", "164227.281000", "164229.281000", "164231.281000", "164233.281000", "164235.281000", "164237.281000", "164239.281000", "164241.281000", "164243.281000", "164245.281000", "164247.265000", "164249.281000", "164251.281000", "164253.281000", "164255.281000", "164257.265000", "164259.281000", "164301.281000", "164303.281000", "164305.281000", "164307.265000", "164309.281000", "164311.265000", "164313.281000", "164315.281000", "164317.281000", "164319.281000", "164321.281000", "164323.281000", "164325.281000", "164327.281000", "164329.281000", "164331.281000", "164333.281000", "164335.281000", "164337.281000", "164339.281000", "164341.281000", "164343.281000", "164345.281000", "164347.281000", "164349.281000", "164351.265000", "164353.281000", "164355.265000", "164357.281000", "164359.281000", "164401.281000", "164403.281000", "164405.281000", "164407.281000", "164409.281000", "164411.281000", "164413.281000", "164415.281000", "164417.281000", "164419.281000", "164421.281000", "164423.265000", "164425.281000", "164427.281000", "164429.281000", "164431.281000", "164433.281000", "164435.281000", "164437.281000", "164439.281000", "164441.281000", "164443.281000", "164445.281000", "164447.281000", "164449.281000", "164451.281000", "164453.281000", "164455.281000", "164457.265000", "164459.281000", "164501.265000", "164503.281000", "164505.281000", "164507.281000", "164509.281000", "164511.281000", "164513.281000", "164515.281000", "164517.265000", "164519.281000", "164521.281000", "164523.281000", "164525.265000", "164527.281000", "164529.281000", "164531.265000", "164533.281000", "164535.281000", "164537.281000", "164539.281000", "164541.281000", "164543.281000", "164545.281000", "164547.281000", "164549.281000", "164551.281000", "164553.281000", "164555.281000", "164557.281000", "164559.281000", "164601.281000", "164603.281000", "164605.281000", "164607.265000", "164609.281000", "164611.281000", "164613.281000", "164615.281000", "164617.281000", "164619.265000", "164621.281000", "164623.281000", "164625.281000", "164627.281000", "164629.265000", "164631.281000", "164633.281000", "164635.281000", "164637.281000", "164639.281000", "164641.281000", "164643.281000", "164645.281000", "164647.281000", "164649.281000", "164651.281000", "164653.281000", "164655.281000", "164657.281000", "164659.281000", "164701.281000", "164703.281000", "164705.281000", "164707.281000", "164709.281000", "164711.281000", "164713.281000", "164715.281000", "164717.281000", "164719.281000", "164721.281000", "164723.281000", "164725.281000", "164727.281000", "164729.281000", "164731.281000", "164733.281000", "164735.281000", "164737.281000", "164739.281000", "164741.281000", "164743.281000", "164745.281000", "164747.281000", "164749.281000", "164751.281000", "164753.281000", "164755.281000", "164757.281000", "164759.281000", "164801.265000", "164803.281000", "164805.281000", "164807.281000", "164809.281000", "164811.281000", "164813.281000", "164815.281000", "164817.281000", "164819.281000", "164821.281000", "164823.281000", "164825.281000", "164827.281000", "164829.281000", "164831.281000", "164833.281000", "164835.281000", "164837.281000", "164839.281000", "164841.281000", "164843.281000", "164845.281000", "164847.281000", "164849.281000", "164851.281000", "164853.281000", "164855.281000", "164857.281000", "164859.281000", "164901.265000", "164903.281000", "164905.281000", "164907.281000", "164909.281000", "164911.281000", "164913.265000", "164915.281000", "164917.281000", "164919.281000", "164921.281000", "164923.281000", "164925.281000", "164927.281000", "164929.281000", "164931.281000", "164933.281000", "164935.281000", "164937.265000", "164939.281000", "164941.281000", "164943.281000", "164945.281000", "164947.281000", "164949.281000", "164951.265000", "164953.281000", "164955.281000", "164957.281000", "164959.281000", "165001.281000", "165003.281000", "165005.281000", "165007.281000", "165009.281000", "165011.281000", "165013.281000", "165015.281000", "165017.281000", "165019.281000", "165021.281000", "165023.281000", "165025.281000", "165027.281000", "165029.281000", "165031.281000", "165033.281000", "165035.281000", "165037.281000", "165039.281000", "165041.281000", "165043.281000", "165045.281000", "165047.281000", "165049.281000", "165051.281000", "165053.281000", "165055.281000", "165057.281000", "165059.281000", "165101.281000", "165103.281000", "165105.281000", "165107.281000", "165109.281000", "165111.281000", "165113.281000", "165115.281000", "165117.281000", "165119.281000", "165121.281000", "165123.281000", "165125.281000", "165127.281000", "165129.281000", "165131.281000", "165133.281000", "165135.281000", "165137.281000", "165139.281000", "165141.281000", "165143.281000", "165145.281000", "165147.281000", "165149.281000", "165151.281000", "165153.281000", "165155.281000", "165157.281000", "165159.281000", "165201.281000", "165203.281000", "165204.953000"],
      "InstanceNumber": [1, 2, 3, 4, 5, 6, 7, 8, 9, 10, 11, 12, 13, 14, 15, 16, 17, 18, 19, 20, 21, 22, 23, 24, 25, 26, 27, 28, 29, 30, 31, 32, 33, 34, 35, 36, 37, 38, 39, 40, 41, 42, 43, 44, 45, 46, 47, 48, 49, 50, 51, 52, 53, 54, 55, 56, 57, 58, 59, 60, 61, 62, 63, 64, 65, 66, 67, 68, 69, 70, 71, 72, 73, 74, 75, 76, 77, 78, 79, 80, 81, 82, 83, 84, 85, 86, 87, 88, 89, 90, 91, 92, 93, 94, 95, 96, 97, 98, 99, 100, 101, 102, 103, 104, 105, 106, 107, 108, 109, 110, 111, 112, 113, 114, 115, 116, 117, 118, 119, 120, 121, 122, 123, 124, 125, 126, 127, 128, 129, 130, 131, 132, 133, 134, 135, 136, 137, 138, 139, 140, 141, 142, 143, 144, 145, 146, 147, 148, 149, 150, 151, 152, 153, 154, 155, 156, 157, 158, 159, 160, 161, 162, 163, 164, 165, 166, 167, 168, 169, 170, 171, 172, 173, 174, 175, 176, 177, 178, 179, 180, 181, 182, 183, 184, 185, 186, 187, 188, 189, 190, 191, 192, 193, 194, 195, 196, 197, 198, 199, 200, 201, 202, 203, 204, 205, 206, 207, 208, 209, 210, 211, 212, 213, 214, 215, 216, 217, 218, 219, 220, 221, 222, 223, 224, 225, 226, 227, 228, 229, 230, 231, 232, 233, 234, 235, 236, 237, 238, 239, 240, 241, 242, 243, 244, 245, 246, 247, 248, 249, 250, 251, 252, 253, 254, 255, 256, 257, 258, 259, 260, 261, 262, 263, 264, 265, 266, 267, 268, 269, 270, 271, 272, 273, 274, 275, 276, 277, 278, 279, 280, 281, 282, 283, 284, 285, 286, 287, 288, 289, 290, 291, 292, 293, 294, 295, 296, 297, 298, 299, 300],
      "LargestImagePixelValue": [1627, 1567, 1558, 1538, 1542, 1538, 1556, 1533, 1540, 1542, 1548, 1543, 1543, 1540, 1548, 1554, 1547, 1558, 1560, 1564, 1556, 1561, 1565, 1551, 1558, 1550, 1561, 1565, 1536, 1555, 1567, 1556, 1556, 1557, 1555, 1540, 1546, 1553, 1550, 1543, 1544, 1556, 1554, 1556, 1568, 1554, 1558, 1537, 1538, 1534, 1527, 1559, 1544, 1547, 1536, 1534, 1563, 1548, 1527, 1544, 1550, 1517, 1528, 1529, 1529, 1547, 1538, 1535, 1528, 1521, 1564, 1539, 1522, 1529, 1560, 1567, 1538, 1523, 1547, 1517, 1526, 1551, 1550, 1560, 1547, 1566, 1569, 1549, 1516, 1549, 1548, 1522, 1536, 1546, 1547, 1531, 1546, 1543, 1562, 1556, 1544, 1551, 1551, 1532, 1643, 1527, 1501, 1511, 1511, 1524, 1530, 1529, 1537, 1515, 1531, 1549, 1540, 1544, 1541, 1557, 1551, 1536, 1532, 1554, 1545, 1588, 1554, 1526, 1532, 1513, 1506, 1525, 1517, 1541, 1537, 1536, 1537, 1538, 1549, 1535, 1530, 1521, 1538, 1542, 1539, 1540, 1545, 1519, 1542, 1555, 1547, 1533, 1539, 1529, 1518, 1515, 1525, 1526, 1531, 1546, 1532, 1528, 1529, 1536, 1549, 1510, 1545, 1518, 1530, 1544, 1510, 1522, 1631, 1526, 1519, 1511, 1527, 1518, 1530, 1514, 1531, 1515, 1513, 1518, 1535, 1536, 1529, 1524, 1537, 1528, 1523, 1519, 1523, 1525, 1511, 1523, 1569, 1473, 1494, 1524, 1524, 1533, 1561, 1524, 1599, 1486, 1505, 1522, 1508, 1502, 1503, 1522, 1513, 1518, 1514, 1525, 1518, 1527, 1517, 1550, 1530, 1529, 1528, 1531, 1514, 1527, 1527, 1535, 1522, 1523, 1535, 1544, 1548, 1545, 1544, 1534, 1561, 1544, 1538, 1548, 1553, 1556, 1548, 1528, 1533, 1569, 1553, 1539, 1546, 1562, 1554, 1545, 1560, 1559, 1537, 1500, 1552, 1559, 1536, 1545, 1542, 1543, 1557, 1551, 1543, 1537, 1551, 1548, 1540, 1522, 1553, 1549, 1537, 1551, 1548, 1555, 1549, 1564, 1555, 1551, 1565, 1557, 1571, 1563, 1559, 1551, 1543, 1536, 1554, 1541, 1559, 1544, 1563, 1568, 1552, 1560, 1557, 1563, 1549, 1560],
      "WindowCenter": [660.0, 657.0, 656.0, 658.0, 658.0, 657.0, 656.0, 657.0, 657.0, 657.0, 657.0, 658.0, 658.0, 657.0, 657.0, 658.0, 657.0, 658.0, 658.0, 658.0, 658.0, 658.0, 659.0, 659.0, 658.0, 659.0, 659.0, 659.0, 661.0, 658.0, 658.0, 659.0, 659.0, 658.0, 658.0, 659.0, 658.0, 657.0, 659.0, 658.0, 657.0, 657.0, 657.0, 658.0, 660.0, 660.0, 659.0, 659.0, 659.0, 658.0, 657.0, 658.0, 658.0, 659.0, 659.0, 659.0, 658.0, 658.0, 658.0, 658.0, 660.0, 660.0, 658.0, 658.0, 658.0, 658.0, 658.0, 658.0, 658.0, 659.0, 660.0, 660.0, 659.0, 658.0, 660.0, 662.0, 661.0, 659.0, 660.0, 658.0, 657.0, 656.0, 658.0, 659.0, 657.0, 658.0, 660.0, 659.0, 656.0, 657.0, 656.0, 654.0, 654.0, 655.0, 657.0, 656.0, 656.0, 656.0, 658.0, 659.0, 657.0, 657.0, 659.0, 659.0, 660.0, 656.0, 657.0, 657.0, 657.0, 656.0, 657.0, 657.0, 659.0, 659.0, 658.0, 658.0, 659.0, 658.0, 657.0, 658.0, 658.0, 657.0, 658.0, 659.0, 655.0, 661.0, 659.0, 657.0, 657.0, 658.0, 657.0, 655.0, 655.0, 656.0, 657.0, 658.0, 658.0, 657.0, 657.0, 657.0, 658.0, 659.0, 660.0, 658.0, 659.0, 659.0, 659.0, 659.0, 659.0, 661.0, 660.0, 658.0, 658.0, 656.0, 657.0, 656.0, 654.0, 654.0, 656.0, 655.0, 654.0, 654.0, 654.0, 655.0, 654.0, 654.0, 655.0, 654.0, 655.0, 655.0, 657.0, 658.0, 657.0, 655.0, 657.0, 656.0, 654.0, 655.0, 656.0, 656.0, 657.0, 658.0, 657.0, 656.0, 656.0, 656.0, 655.0, 655.0, 657.0, 657.0, 657.0, 657.0, 658.0, 658.0, 657.0, 657.0, 661.0, 660.0, 658.0, 659.0, 658.0, 656.0, 656.0, 655.0, 655.0, 655.0, 656.0, 656.0, 654.0, 654.0, 654.0, 654.0, 654.0, 655.0, 655.0, 657.0, 658.0, 658.0, 658.0, 659.0, 659.0, 658.0, 656.0, 656.0, 656.0, 655.0, 655.0, 657.0, 656.0, 653.0, 655.0, 655.0, 654.0, 655.0, 655.0, 655.0, 656.0, 655.0, 654.0, 655.0, 655.0, 655.0, 655.0, 657.0, 656.0, 655.0, 657.0, 656.0, 655.0, 654.0, 654.0, 654.0, 655.0, 654.0, 657.0, 656.0, 655.0, 655.0, 655.0, 655.0, 654.0, 655.0, 656.0, 656.0, 655.0, 654.0, 655.0, 655.0, 656.0, 655.0, 655.0, 655.0, 654.0, 652.0, 651.0, 653.0, 653.0, 654.0, 655.0, 655.0, 655.0, 655.0, 655.0, 655.0, 656.0, 656.0, 658.0, 658.0, 658.0, 658.0, 660.0, 658.0, 656.0, 656.0, 655.0, 655.0, 655.0, 655.0, 655.0, 656.0],
      "WindowWidth": [1412.0, 1405.0, 1403.0, 1408.0, 1409.0, 1404.0, 1402.0, 1405.0, 1407.0, 1404.0, 1405.0, 1409.0, 1407.0, 1405.0, 1406.0, 1407.0, 1406.0, 1407.0, 1408.0, 1408.0, 1407.0, 1408.0, 1410.0, 1411.0, 1409.0, 1410.0, 1411.0, 1411.0, 1415.0, 1409.0, 1407.0, 1412.0, 1412.0, 1408.0, 1407.0, 1410.0, 1408.0, 1405.0, 1410.0, 1409.0, 1405.0, 1404.0, 1405.0, 1407.0, 1412.0, 1412.0, 1410.0, 1410.0, 1411.0, 1408.0, 1406.0, 1407.0, 1409.0, 1410.0, 1410.0, 1410.0, 1408.0, 1409.0, 1408.0, 1407.0, 1414.0, 1413.0, 1409.0, 1407.0, 1407.0, 1408.0, 1408.0, 1407.0, 1408.0, 1411.0, 1413.0, 1414.0, 1410.0, 1409.0, 1412.0, 1418.0, 1416.0, 1410.0, 1415.0, 1409.0, 1405.0, 1403.0, 1407.0, 1411.0, 1407.0, 1409.0, 1413.0, 1410.0, 1403.0, 1405.0, 1403.0, 1397.0, 1397.0, 1400.0, 1405.0, 1403.0, 1403.0, 1404.0, 1408.0, 1410.0, 1405.0, 1406.0, 1411.0, 1409.0, 1412.0, 1403.0, 1406.0, 1407.0, 1406.0, 1404.0, 1407.0, 1407.0, 1410.0, 1411.0, 1409.0, 1408.0, 1412.0, 1408.0, 1405.0, 1408.0, 1407.0, 1406.0, 1410.0, 1410.0, 1401.0, 1416.0, 1412.0, 1405.0, 1405.0, 1409.0, 1405.0, 1402.0, 1402.0, 1404.0, 1405.0, 1408.0, 1408.0, 1407.0, 1407.0, 1407.0, 1409.0, 1412.0, 1413.0, 1409.0, 1410.0, 1411.0, 1410.0, 1411.0, 1411.0, 1416.0, 1414.0, 1409.0, 1408.0, 1405.0, 1405.0, 1403.0, 1399.0, 1399.0, 1403.0, 1402.0, 1399.0, 1399.0, 1398.0, 1400.0, 1399.0, 1398.0, 1401.0, 1398.0, 1400.0, 1402.0, 1405.0, 1408.0, 1406.0, 1401.0, 1405.0, 1403.0, 1399.0, 1400.0, 1404.0, 1402.0, 1407.0, 1409.0, 1406.0, 1404.0, 1404.0, 1403.0, 1400.0, 1401.0, 1405.0, 1406.0, 1405.0, 1407.0, 1409.0, 1407.0, 1405.0, 1406.0, 1417.0, 1413.0, 1408.0, 1411.0, 1407.0, 1402.0, 1403.0, 1401.0, 1400.0, 1400.0, 1404.0, 1402.0, 1398.0, 1398.0, 1398.0, 1398.0, 1400.0, 1400.0, 1401.0, 1405.0, 1408.0, 1408.0, 1408.0, 1412.0, 1412.0, 1407.0, 1404.0, 1404.0, 1404.0, 1401.0, 1402.0, 1406.0, 1403.0, 1396.0, 1401.0, 1402.0, 1398.0, 1400.0, 1401.0, 1400.0, 1402.0, 1400.0, 1399.0, 1400.0, 1400.0, 1400.0, 1402.0, 1407.0, 1404.0, 1401.0, 1405.0, 1404.0, 1401.0, 1398.0, 1399.0, 1399.0, 1400.0, 1397.0, 1405.0, 1404.0, 1400.0, 1400.0, 1400.0, 1401.0, 1399.0, 1400.0, 1402.0, 1402.0, 1400.0, 1399.0, 1402.0, 1402.0, 1404.0, 1402.0, 1400.0, 1400.0, 1398.0, 1393.0, 1391.0, 1395.0, 1396.0, 1399.0, 1402.0, 1401.0, 1400.0, 1400.0, 1402.0, 1402.0, 1403.0, 1404.0, 1407.0, 1408.0, 1408.0, 1409.0, 1412.0, 1408.0, 1404.0, 1402.0, 1400.0, 1400.0, 1400.0, 1401.0, 1401.0, 1405.0]
