{
  "AcquisitionMatrixPE": 64,
  "AcquisitionNumber": 1,
  "AcquisitionTime": "16:54:8.815000",
  "BandwidthPerPixelPhaseEncode": 31.25,
  "BaseResolution": 64,
  "CoilCombinationMethod": "Sum of Squares",
  "CoilString": "C:HEA;HEP",
  "ConversionSoftware": "dcm2niix",
  "ConversionSoftwareVersion": "v1.0.20211006",
  "DerivedVendorReportedEchoSpacing": 0.0005,
  "DeviceSerialNumber": "35377",
  "DwellTime": 3.4e-06,
  "EchoTime": 0.03,
  "EffectiveEchoSpacing": 0.0005,
  "FlipAngle": 90,
  "ImageOrientationPatientDICOM": [0.997014, -0.0764928, 0.010596, 0.076716, 0.996798, -0.0225657],
  "ImageOrientationText": "Tra>Cor(-1.3)>Sag(0.5)",
  "ImageType": [
    "ORIGINAL",
    "PRIMARY",
    "M",
    "ND",
    "MOSAIC"
],
  "ImagingFrequency": 123.256,
  "InPlanePhaseEncodingDirectionDICOM": "COL",
  "InstitutionAddress": "Azinhaga Santa Comba StreetNo,Coimbra,District,PT,3000",
  "InstitutionName": "IBILI",
  "InstitutionalDepartmentName": "Department",
  "MRAcquisitionType": "2D",
  "MagneticFieldStrength": 3,
  "Manufacturer": "Siemens",
  "ManufacturersModelName": "TrioTim",
  "MatrixCoilMode": "SENSE",
  "Modality": "MR",
  "PartialFourier": 1,
  "PatientPosition": "HFS",
  "PercentPhaseFOV": 100,
  "PercentSampling": 100,
  "PhaseEncodingDirection": "j-",
  "PhaseEncodingSteps": 64,
  "PhaseResolution": 1,
  "PixelBandwidth": 2298,
  "ProcedureStepDescription": "Unknown",
  "ProtocolName": "rtfmri_neurofeedback_AvatarNofeedback",
  "PulseSequenceDetails": "%SiemensSeq%\\ep2d_bold",
  "ReceiveCoilName": "HeadMatrix",
  "ReconMatrixPE": 64,
  "RepetitionTime": 2,
  "SAR": 0.171957,
  "ScanOptions": "FS",
  "ScanningSequence": "EP",
  "SequenceName": "*epfid2d1_64",
  "SequenceVariant": "SK",
  "SeriesDescription": "rtfmri_neurofeedback_AvatarNofeedback",
  "SeriesNumber": 6,
  "ShimSetting": [15842, 7515, 21329, 629, 355, -456, 480, -24],
  "SliceThickness": 3,
  "SliceTiming": [0, 1.035, 0.0625, 1.095, 0.1225, 1.1575, 0.1825, 1.2175, 0.245, 1.2775, 0.305, 1.34, 0.365, 1.4, 0.4275, 1.46, 0.4875, 1.5225, 0.5475, 1.5825, 0.61, 1.6425, 0.67, 1.705, 0.73, 1.765, 0.7925, 1.825, 0.8525, 1.8875, 0.9125, 1.9475, 0.975],
  "SoftwareVersions": "syngo MR B17",
  "SpacingBetweenSlices": 3,
  "StationName": "MRC35377",
  "TaskName": "nofeedback",
  "TotalReadoutTime": 0.0315,
  "TxRefAmp": 385.259,
  "dcmmeta_affine": [
    [-3.9880552291870117, 0.30686408281326294, 0.026507752016186714, 120.48240661621094],
    [0.3059711754322052, 3.9871904850006104, -0.06993365287780762, -97.48936462402344],
    [0.04238386079668999, 0.09026288241147995, 2.999067783355713, -48.957489013671875],
    [0.0, 0.0, 0.0, 1.0]
],
  "dcmmeta_reorient_transform": [
    [0.0, -1.0, 0.0, 63.0],
    [1.0, 0.0, 0.0, 0.0],
    [0.0, 0.0, 1.0, 0.0],
    [0.0, 0.0, 0.0, 1.0]
],
  "dcmmeta_shape": [64, 64, 33, 300],
  "dcmmeta_slice_dim": 2,
  "dcmmeta_version": 0.6,
  "global": {
    "const": {
      "AccessionNumber": "GNF20150313-0549",
      "AcquisitionMatrix": [64, 0, 0, 64],
      "Allergies": "MEDALERGIESL",
      "AngioFlag": "N",
      "BitsAllocated": 16,
      "BitsStored": 12,
      "Columns": 384,
      "EchoNumbers": 1,
      "EchoTime": 30.0,
      "EchoTrainLength": 1,
      "FlipAngle": 90.0,
      "HighBit": 11,
      "ImageOrientationPatient": [0.99701383062214, -0.0764927910112, 0.0105959648679, 0.07671602253819, 0.99679759234945, -0.0225657211773],
      "ImagePositionPatient": [-827.00194669888, -742.69870473732, -35.610281963983],
      "ImageType": [
        "ORIGINAL",
        "PRIMARY",
        "M",
        "ND",
        "MOSAIC"
],
      "ImagedNucleus": "1H",
      "ImagingFrequency": 123.25563,
      "InPlanePhaseEncodingDirection": "COL",
      "MRAcquisitionType": "2D",
      "MagneticFieldStrength": 3.0,
      "Manufacturer": "SIEMENS",
      "ManufacturerModelName": "TrioTim",
      "MedicalAlerts": "MEDALERTS",
      "Modality": "MR",
      "NumberOfAverages": 1.0,
      "NumberOfPhaseEncodingSteps": 64,
      "PercentPhaseFieldOfView": 100.0,
      "PercentSampling": 100.0,
      "PerformedProcedureStepStartTime": "161045.781000",
      "PhotometricInterpretation": "MONOCHROME2",
      "PixelBandwidth": 2298.0,
      "PixelRepresentation": 0,
      "PixelSpacing": [4.0, 4.0],
      "ProtocolName": "rtfmri_neurofeedback_AvatarNofeedback",
      "RepetitionTime": 2000.0,
      "RequestAttributesSequence": [
        {
          "RequestedProcedureID": "112b543c-70a8-4e",
          "ScheduledProcedureStepDescription": "Unknown",
          "ScheduledProcedureStepID": "112b543c-70a8-4e"
        }
],
      "Rows": 384,
      "SAR": 0.17195687270087,
      "SamplesPerPixel": 1,
      "ScanOptions": "FS",
      "ScanningSequence": "EP",
      "SequenceName": "*epfid2d1_64",
      "SequenceVariant": "SK",
      "SeriesDescription": "rtfmri_neurofeedback_AvatarNofeedback",
      "SeriesNumber": 6,
      "SeriesTime": "165412.578000",
      "SliceLocation": -45.605104026427,
      "SliceThickness": 3.0,
      "SmallestImagePixelValue": 0,
      "SoftwareVersions": "syngo MR B17",
      "SpacingBetweenSlices": 3.0000000384586,
      "SpecificCharacterSet": "ISO_IR 100",
      "StudyID": "112b543c-70a8-4e",
      "StudyTime": "161045.718000",
      "TransmitCoilName": "Body",
      "VariableFlipAngleFlag": "N",
      "WindowCenterWidthExplanation": "Algo1",
      "dBdt": 0.0},
    "slices": {}
  },
  "time": {
    "samples": {
      "AcquisitionNumber": [1, 2, 3, 4, 5, 6, 7, 8, 9, 10, 11, 12, 13, 14, 15, 16, 17, 18, 19, 20, 21, 22, 23, 24, 25, 26, 27, 28, 29, 30, 31, 32, 33, 34, 35, 36, 37, 38, 39, 40, 41, 42, 43, 44, 45, 46, 47, 48, 49, 50, 51, 52, 53, 54, 55, 56, 57, 58, 59, 60, 61, 62, 63, 64, 65, 66, 67, 68, 69, 70, 71, 72, 73, 74, 75, 76, 77, 78, 79, 80, 81, 82, 83, 84, 85, 86, 87, 88, 89, 90, 91, 92, 93, 94, 95, 96, 97, 98, 99, 100, 101, 102, 103, 104, 105, 106, 107, 108, 109, 110, 111, 112, 113, 114, 115, 116, 117, 118, 119, 120, 121, 122, 123, 124, 125, 126, 127, 128, 129, 130, 131, 132, 133, 134, 135, 136, 137, 138, 139, 140, 141, 142, 143, 144, 145, 146, 147, 148, 149, 150, 151, 152, 153, 154, 155, 156, 157, 158, 159, 160, 161, 162, 163, 164, 165, 166, 167, 168, 169, 170, 171, 172, 173, 174, 175, 176, 177, 178, 179, 180, 181, 182, 183, 184, 185, 186, 187, 188, 189, 190, 191, 192, 193, 194, 195, 196, 197, 198, 199, 200, 201, 202, 203, 204, 205, 206, 207, 208, 209, 210, 211, 212, 213, 214, 215, 216, 217, 218, 219, 220, 221, 222, 223, 224, 225, 226, 227, 228, 229, 230, 231, 232, 233, 234, 235, 236, 237, 238, 239, 240, 241, 242, 243, 244, 245, 246, 247, 248, 249, 250, 251, 252, 253, 254, 255, 256, 257, 258, 259, 260, 261, 262, 263, 264, 265, 266, 267, 268, 269, 270, 271, 272, 273, 274, 275, 276, 277, 278, 279, 280, 281, 282, 283, 284, 285, 286, 287, 288, 289, 290, 291, 292, 293, 294, 295, 296, 297, 298, 299, 300],
      "AcquisitionTime": ["165408.815000", "165410.822500", "165412.832500", "165414.840000", "165416.847500", "165418.855000", "165420.865000", "165422.872500", "165424.880000", "165426.887500", "165428.895000", "165430.905000", "165432.912500", "165434.920000", "165436.927500", "165438.935000", "165440.945000", "165442.952500", "165444.960000", "165446.967500", "165448.977500", "165450.985000", "165452.992500", "165455.000000", "165457.007500", "165459.017500", "165501.025000", "165503.032500", "165505.040000", "165507.047500", "165509.057500", "165511.065000", "165513.072500", "165515.080000", "165517.087500", "165519.097500", "165521.105000", "165523.112500", "165525.120000", "165527.130000", "165529.137500", "165531.145000", "165533.152500", "165535.160000", "165537.170000", "165539.177500", "165541.185000", "165543.192500", "165545.200000", "165547.210000", "165549.217500", "165551.225000", "165553.232500", "165555.242500", "165557.250000", "165559.257500", "165601.265000", "165603.272500", "165605.282500", "165607.290000", "165609.297500", "165611.305000", "165613.312500", "165615.322500", "165617.330000", "165619.337500", "165621.345000", "165623.355000", "165625.362500", "165627.370000", "165629.377500", "165631.385000", "165633.395000", "165635.402500", "165637.410000", "165639.417500", "165641.425000", "165643.435000", "165645.442500", "165647.450000", "165649.457500", "165651.465000", "165653.475000", "165655.482500", "165657.490000", "165659.497500", "165701.507500", "165703.515000", "165705.522500", "165707.530000", "165709.537500", "165711.547500", "165713.555000", "165715.562500", "165717.570000", "165719.577500", "165721.587500", "165723.595000", "165725.602500", "165727.610000", "165729.620000", "165731.627500", "165733.635000", "165735.642500", "165737.650000", "165739.660000", "165741.667500", "165743.675000", "165745.682500", "165747.690000", "165749.700000", "165751.707500", "165753.715000", "165755.722500", "165757.732500", "165759.740000", "165801.747500", "165803.755000", "165805.762500", "165807.772500", "165809.780000", "165811.787500", "165813.795000", "165815.802500", "165817.812500", "165819.820000", "165821.827500", "165823.835000", "165825.842500", "165827.852500", "165829.860000", "165831.867500", "165833.875000", "165835.885000", "165837.892500", "165839.900000", "165841.907500", "165843.915000", "165845.925000", "165847.932500", "165849.940000", "165851.947500", "165853.955000", "165855.965000", "165857.972500", "165859.980000", "165901.987500", "165903.997500", "165906.005000", "165908.012500", "165910.020000", "165912.027500", "165914.037500", "165916.045000", "165918.052500", "165920.060000", "165922.067500", "165924.077500", "165926.085000", "165928.092500", "165930.100000", "165932.110000", "165934.117500", "165936.125000", "165938.132500", "165940.140000", "165942.150000", "165944.157500", "165946.165000", "165948.172500", "165950.180000", "165952.190000", "165954.197500", "165956.205000", "165958.212500", "170000.220000", "170002.230000", "170004.237500", "170006.245000", "170008.252500", "170010.262500", "170012.270000", "170014.277500", "170016.285000", "170018.292500", "170020.302500", "170022.310000", "170024.317500", "170026.325000", "170028.332500", "170030.342500", "170032.350000", "170034.357500", "170036.365000", "170038.375000", "170040.382500", "170042.390000", "170044.397500", "170046.405000", "170048.415000", "170050.422500", "170052.430000", "170054.437500", "170056.445000", "170058.455000", "170100.462500", "170102.470000", "170104.477500", "170106.487500", "170108.495000", "170110.502500", "170112.510000", "170114.517500", "170116.527500", "170118.535000", "170120.542500", "170122.550000", "170124.557500", "170126.567500", "170128.575000", "170130.582500", "170132.590000", "170134.597500", "170136.607500", "170138.615000", "170140.622500", "170142.630000", "170144.640000", "170146.647500", "170148.655000", "170150.662500", "170152.670000", "170154.680000", "170156.687500", "170158.695000", "170200.702500", "170202.710000", "170204.720000", "170206.727500", "170208.735000", "170210.742500", "170212.752500", "170214.760000", "170216.767500", "170218.775000", "170220.782500", "170222.792500", "170224.800000", "170226.807500", "170228.815000", "170230.822500", "170232.832500", "170234.840000", "170236.847500", "170238.855000", "170240.865000", "170242.872500", "170244.880000", "170246.887500", "170248.895000", "170250.905000", "170252.912500", "170254.920000", "170256.927500", "170258.935000", "170300.945000", "170302.952500", "170304.960000", "170306.967500", "170308.977500", "170310.985000", "170312.992500", "170315.000000", "170317.007500", "170319.017500", "170321.025000", "170323.032500", "170325.040000", "170327.047500", "170329.057500", "170331.065000", "170333.072500", "170335.080000", "170337.087500", "170339.097500", "170341.105000", "170343.112500", "170345.120000", "170347.130000", "170349.137500", "170351.145000", "170353.152500", "170355.160000", "170357.170000", "170359.177500", "170401.185000", "170403.192500", "170405.200000", "170407.210000", "170409.217500"],
      "ContentTime": ["165412.578000", "165414.578000", "165416.578000", "165418.578000", "165420.578000", "165422.578000", "165424.578000", "165426.578000", "165428.578000", "165430.578000", "165432.578000", "165434.578000", "165436.578000", "165438.578000", "165440.578000", "165442.578000", "165444.578000", "165446.578000", "165448.578000", "165450.578000", "165452.578000", "165454.578000", "165456.578000", "165458.578000", "165500.578000", "165502.562000", "165504.578000", "165506.578000", "165508.578000", "165510.578000", "165512.562000", "165514.578000", "165516.578000", "165518.578000", "165520.578000", "165522.578000", "165524.578000", "165526.578000", "165528.578000", "165530.578000", "165532.578000", "165534.578000", "165536.578000", "165538.578000", "165540.578000", "165542.578000", "165544.578000", "165546.578000", "165548.578000", "165550.578000", "165552.578000", "165554.578000", "165556.578000", "165558.578000", "165600.578000", "165602.578000", "165604.578000", "165606.578000", "165608.578000", "165610.578000", "165612.578000", "165614.578000", "165616.578000", "165618.562000", "165620.578000", "165622.578000", "165624.578000", "165626.578000", "165628.578000", "165630.578000", "165632.578000", "165634.578000", "165636.578000", "165638.578000", "165640.578000", "165642.578000", "165644.562000", "165646.578000", "165648.578000", "165650.578000", "165652.578000", "165654.578000", "165656.562000", "165658.578000", "165700.578000", "165702.562000", "165704.578000", "165706.578000", "165708.578000", "165710.578000", "165712.578000", "165714.578000", "165716.578000", "165718.578000", "165720.578000", "165722.578000", "165724.578000", "165726.578000", "165728.578000", "165730.578000", "165732.578000", "165734.578000", "165736.578000", "165738.578000", "165740.562000", "165742.578000", "165744.578000", "165746.578000", "165748.578000", "165750.578000", "165752.578000", "165754.578000", "165756.578000", "165758.578000", "165800.578000", "165802.578000", "165804.578000", "165806.578000", "165808.578000", "165810.578000", "165812.578000", "165814.578000", "165816.578000", "165818.578000", "165820.578000", "165822.578000", "165824.578000", "165826.578000", "165828.578000", "165830.578000", "165832.578000", "165834.578000", "165836.578000", "165838.578000", "165840.578000", "165842.578000", "165844.578000", "165846.578000", "165848.578000", "165850.578000", "165852.578000", "165854.578000", "165856.578000", "165858.578000", "165900.578000", "165902.578000", "165904.578000", "165906.578000", "165908.578000", "165910.578000", "165912.578000", "165914.562000", "165916.578000", "165918.578000", "165920.578000", "165922.578000", "165924.578000", "165926.578000", "165928.578000", "165930.578000", "165932.578000", "165934.578000", "165936.578000", "165938.578000", "165940.578000", "165942.578000", "165944.578000", "165946.578000", "165948.578000", "165950.578000", "165952.578000", "165954.578000", "165956.578000", "165958.578000", "170000.578000", "170002.578000", "170004.578000", "170006.578000", "170008.578000", "170010.578000", "170012.578000", "170014.578000", "170016.578000", "170018.578000", "170020.578000", "170022.578000", "170024.578000", "170026.578000", "170028.578000", "170030.562000", "170032.578000", "170034.578000", "170036.578000", "170038.578000", "170040.578000", "170042.578000", "170044.578000", "170046.578000", "170048.578000", "170050.578000", "170052.578000", "170054.578000", "170056.578000", "170058.578000", "170100.578000", "170102.578000", "170104.578000", "170106.578000", "170108.578000", "170110.578000", "170112.578000", "170114.578000", "170116.578000", "170118.578000", "170120.578000", "170122.578000", "170124.578000", "170126.578000", "170128.578000", "170130.578000", "170132.578000", "170134.578000", "170136.578000", "170138.578000", "170140.578000", "170142.578000", "170144.562000", "170146.578000", "170148.578000", "170150.578000", "170152.578000", "170154.578000", "170156.578000", "170158.578000", "170200.578000", "170202.562000", "170204.578000", "170206.578000", "170208.578000", "170210.578000", "170212.578000", "170214.578000", "170216.578000", "170218.578000", "170220.578000", "170222.578000", "170224.562000", "170226.578000", "170228.578000", "170230.578000", "170232.578000", "170234.578000", "170236.578000", "170238.578000", "170240.578000", "170242.578000", "170244.578000", "170246.578000", "170248.578000", "170250.578000", "170252.578000", "170254.578000", "170256.578000", "170258.578000", "170300.578000", "170302.578000", "170304.578000", "170306.578000", "170308.578000", "170310.578000", "170312.578000", "170314.578000", "170316.578000", "170318.578000", "170320.578000", "170322.578000", "170324.578000", "170326.578000", "170328.578000", "170330.578000", "170332.578000", "170334.578000", "170336.578000", "170338.578000", "170340.578000", "170342.578000", "170344.578000", "170346.578000", "170348.578000", "170350.578000", "170352.578000", "170354.578000", "170356.578000", "170358.578000", "170400.578000", "170402.578000", "170404.578000", "170406.578000", "170408.578000", "170410.234000"],
      "InstanceCreationTime": ["165412.578000", "165414.578000", "165416.578000", "165418.578000", "165420.578000", "165422.578000", "165424.578000", "165426.578000", "165428.578000", "165430.578000", "165432.578000", "165434.578000", "165436.578000", "165438.578000", "165440.578000", "165442.578000", "165444.578000", "165446.578000", "165448.578000", "165450.578000", "165452.578000", "165454.578000", "165456.578000", "165458.578000", "165500.578000", "165502.562000", "165504.578000", "165506.578000", "165508.578000", "165510.578000", "165512.562000", "165514.578000", "165516.578000", "165518.578000", "165520.578000", "165522.578000", "165524.578000", "165526.578000", "165528.578000", "165530.578000", "165532.578000", "165534.578000", "165536.578000", "165538.578000", "165540.578000", "165542.578000", "165544.578000", "165546.578000", "165548.578000", "165550.578000", "165552.578000", "165554.578000", "165556.578000", "165558.578000", "165600.578000", "165602.578000", "165604.578000", "165606.578000", "165608.578000", "165610.578000", "165612.578000", "165614.578000", "165616.578000", "165618.562000", "165620.578000", "165622.578000", "165624.578000", "165626.578000", "165628.578000", "165630.578000", "165632.578000", "165634.578000", "165636.578000", "165638.578000", "165640.578000", "165642.578000", "165644.562000", "165646.578000", "165648.578000", "165650.578000", "165652.578000", "165654.578000", "165656.562000", "165658.578000", "165700.578000", "165702.562000", "165704.578000", "165706.578000", "165708.578000", "165710.578000", "165712.578000", "165714.578000", "165716.578000", "165718.578000", "165720.578000", "165722.578000", "165724.578000", "165726.578000", "165728.578000", "165730.578000", "165732.578000", "165734.578000", "165736.578000", "165738.578000", "165740.562000", "165742.578000", "165744.578000", "165746.578000", "165748.578000", "165750.578000", "165752.578000", "165754.578000", "165756.578000", "165758.578000", "165800.578000", "165802.578000", "165804.578000", "165806.578000", "165808.578000", "165810.578000", "165812.578000", "165814.578000", "165816.578000", "165818.578000", "165820.578000", "165822.578000", "165824.578000", "165826.578000", "165828.578000", "165830.578000", "165832.578000", "165834.578000", "165836.578000", "165838.578000", "165840.578000", "165842.578000", "165844.578000", "165846.578000", "165848.578000", "165850.578000", "165852.578000", "165854.578000", "165856.578000", "165858.578000", "165900.578000", "165902.578000", "165904.578000", "165906.578000", "165908.578000", "165910.578000", "165912.578000", "165914.562000", "165916.578000", "165918.578000", "165920.578000", "165922.578000", "165924.578000", "165926.578000", "165928.578000", "165930.578000", "165932.578000", "165934.578000", "165936.578000", "165938.578000", "165940.578000", "165942.578000", "165944.578000", "165946.578000", "165948.578000", "165950.578000", "165952.578000", "165954.578000", "165956.578000", "165958.578000", "170000.578000", "170002.578000", "170004.578000", "170006.578000", "170008.578000", "170010.578000", "170012.578000", "170014.578000", "170016.578000", "170018.578000", "170020.578000", "170022.578000", "170024.578000", "170026.578000", "170028.578000", "170030.562000", "170032.578000", "170034.578000", "170036.578000", "170038.578000", "170040.578000", "170042.578000", "170044.578000", "170046.578000", "170048.578000", "170050.578000", "170052.578000", "170054.578000", "170056.578000", "170058.578000", "170100.578000", "170102.578000", "170104.578000", "170106.578000", "170108.578000", "170110.578000", "170112.578000", "170114.578000", "170116.578000", "170118.578000", "170120.578000", "170122.578000", "170124.578000", "170126.578000", "170128.578000", "170130.578000", "170132.578000", "170134.578000", "170136.578000", "170138.578000", "170140.578000", "170142.578000", "170144.562000", "170146.578000", "170148.578000", "170150.578000", "170152.578000", "170154.578000", "170156.578000", "170158.578000", "170200.578000", "170202.562000", "170204.578000", "170206.578000", "170208.578000", "170210.578000", "170212.578000", "170214.578000", "170216.578000", "170218.578000", "170220.578000", "170222.578000", "170224.562000", "170226.578000", "170228.578000", "170230.578000", "170232.578000", "170234.578000", "170236.578000", "170238.578000", "170240.578000", "170242.578000", "170244.578000", "170246.578000", "170248.578000", "170250.578000", "170252.578000", "170254.578000", "170256.578000", "170258.578000", "170300.578000", "170302.578000", "170304.578000", "170306.578000", "170308.578000", "170310.578000", "170312.578000", "170314.578000", "170316.578000", "170318.578000", "170320.578000", "170322.578000", "170324.578000", "170326.578000", "170328.578000", "170330.578000", "170332.578000", "170334.578000", "170336.578000", "170338.578000", "170340.578000", "170342.578000", "170344.578000", "170346.578000", "170348.578000", "170350.578000", "170352.578000", "170354.578000", "170356.578000", "170358.578000", "170400.578000", "170402.578000", "170404.578000", "170406.578000", "170408.578000", "170410.234000"],
      "InstanceNumber": [1, 2, 3, 4, 5, 6, 7, 8, 9, 10, 11, 12, 13, 14, 15, 16, 17, 18, 19, 20, 21, 22, 23, 24, 25, 26, 27, 28, 29, 30, 31, 32, 33, 34, 35, 36, 37, 38, 39, 40, 41, 42, 43, 44, 45, 46, 47, 48, 49, 50, 51, 52, 53, 54, 55, 56, 57, 58, 59, 60, 61, 62, 63, 64, 65, 66, 67, 68, 69, 70, 71, 72, 73, 74, 75, 76, 77, 78, 79, 80, 81, 82, 83, 84, 85, 86, 87, 88, 89, 90, 91, 92, 93, 94, 95, 96, 97, 98, 99, 100, 101, 102, 103, 104, 105, 106, 107, 108, 109, 110, 111, 112, 113, 114, 115, 116, 117, 118, 119, 120, 121, 122, 123, 124, 125, 126, 127, 128, 129, 130, 131, 132, 133, 134, 135, 136, 137, 138, 139, 140, 141, 142, 143, 144, 145, 146, 147, 148, 149, 150, 151, 152, 153, 154, 155, 156, 157, 158, 159, 160, 161, 162, 163, 164, 165, 166, 167, 168, 169, 170, 171, 172, 173, 174, 175, 176, 177, 178, 179, 180, 181, 182, 183, 184, 185, 186, 187, 188, 189, 190, 191, 192, 193, 194, 195, 196, 197, 198, 199, 200, 201, 202, 203, 204, 205, 206, 207, 208, 209, 210, 211, 212, 213, 214, 215, 216, 217, 218, 219, 220, 221, 222, 223, 224, 225, 226, 227, 228, 229, 230, 231, 232, 233, 234, 235, 236, 237, 238, 239, 240, 241, 242, 243, 244, 245, 246, 247, 248, 249, 250, 251, 252, 253, 254, 255, 256, 257, 258, 259, 260, 261, 262, 263, 264, 265, 266, 267, 268, 269, 270, 271, 272, 273, 274, 275, 276, 277, 278, 279, 280, 281, 282, 283, 284, 285, 286, 287, 288, 289, 290, 291, 292, 293, 294, 295, 296, 297, 298, 299, 300],
      "LargestImagePixelValue": [1656, 1566, 1539, 1561, 1553, 1554, 1546, 1546, 1532, 1546, 1557, 1532, 1537, 1557, 1538, 1544, 1546, 1553, 1546, 1543, 1532, 1521, 1552, 1575, 1524, 1527, 1532, 1548, 1531, 1547, 1544, 1533, 1552, 1538, 1528, 1517, 1534, 1531, 1521, 1514, 1540, 1542, 1530, 1532, 1530, 1529, 1531, 1528, 1525, 1528, 1523, 1537, 1526, 1521, 1541, 1545, 1529, 1518, 1542, 1541, 1533, 1545, 1537, 1539, 1539, 1531, 1546, 1539, 1533, 1552, 1542, 1531, 1539, 1527, 1545, 1530, 1515, 1546, 1541, 1543, 1540, 1554, 1544, 1548, 1541, 1540, 1534, 1539, 1543, 1526, 1553, 1494, 1508, 1524, 1532, 1563, 1535, 1546, 1548, 1541, 1553, 1555, 1527, 1549, 1569, 1559, 1546, 1549, 1547, 1552, 1556, 1546, 1550, 1681, 1590, 1538, 1540, 1552, 1543, 1547, 1574, 1568, 1556, 1535, 1569, 1556, 1565, 1508, 1569, 1559, 1551, 1548, 1528, 1532, 1539, 1530, 1550, 1556, 1558, 1549, 1558, 1562, 1567, 1639, 1548, 1559, 1552, 1558, 1558, 1569, 1550, 1554, 1544, 1554, 1554, 1537, 1533, 1544, 1536, 1538, 1556, 1552, 1547, 1559, 1550, 1539, 1557, 1536, 1540, 1553, 1554, 1565, 1554, 1569, 1574, 1542, 1547, 1531, 1534, 1530, 1544, 1531, 1565, 1562, 1544, 1567, 1571, 1553, 1545, 1561, 1533, 1540, 1543, 1529, 1561, 1486, 1560, 1547, 1543, 1551, 1548, 1558, 1542, 1541, 1549, 1543, 1544, 1550, 1558, 1574, 1539, 1538, 1558, 1539, 1537, 1550, 1556, 1554, 1557, 1588, 1537, 1567, 1503, 1522, 1544, 1550, 1550, 1551, 1554, 1552, 1577, 1544, 1539, 1556, 1547, 1535, 1560, 1543, 1535, 1542, 1549, 1552, 1544, 1567, 1557, 1533, 1540, 1562, 1540, 1552, 1541, 1540, 1555, 1551, 1542, 1511, 1577, 1539, 1541, 1569, 1553, 1560, 1562, 1546, 1541, 1553, 1529, 1540, 1537, 1547, 1550, 1569, 1557, 1563, 1543, 1539, 1546, 1543, 1671, 1553, 1559, 1563, 1560, 1549, 1546, 1554, 1558, 1554, 1573, 1548, 1555, 1553, 1538, 1549, 1663, 1517, 1555, 1519, 1512, 1533],
      "WindowCenter": [661.0, 657.0, 657.0, 658.0, 656.0, 656.0, 656.0, 655.0, 656.0, 656.0, 656.0, 656.0, 655.0, 654.0, 654.0, 654.0, 656.0, 657.0, 656.0, 656.0, 655.0, 655.0, 655.0, 656.0, 656.0, 654.0, 655.0, 654.0, 653.0, 652.0, 653.0, 654.0, 654.0, 654.0, 654.0, 655.0, 655.0, 655.0, 656.0, 655.0, 654.0, 655.0, 654.0, 655.0, 655.0, 655.0, 656.0, 655.0, 655.0, 655.0, 656.0, 656.0, 655.0, 655.0, 656.0, 657.0, 655.0, 655.0, 655.0, 653.0, 653.0, 653.0, 656.0, 655.0, 656.0, 657.0, 656.0, 655.0, 654.0, 654.0, 654.0, 653.0, 654.0, 655.0, 656.0, 656.0, 655.0, 655.0, 655.0, 655.0, 655.0, 655.0, 653.0, 653.0, 655.0, 654.0, 655.0, 654.0, 654.0, 655.0, 655.0, 654.0, 655.0, 654.0, 652.0, 652.0, 654.0, 654.0, 653.0, 654.0, 655.0, 655.0, 655.0, 655.0, 656.0, 656.0, 655.0, 654.0, 654.0, 653.0, 653.0, 654.0, 655.0, 658.0, 657.0, 656.0, 656.0, 655.0, 653.0, 653.0, 654.0, 655.0, 655.0, 656.0, 656.0, 655.0, 656.0, 655.0, 656.0, 655.0, 654.0, 654.0, 654.0, 655.0, 655.0, 656.0, 656.0, 655.0, 655.0, 654.0, 654.0, 654.0, 655.0, 655.0, 653.0, 654.0, 653.0, 652.0, 651.0, 652.0, 653.0, 654.0, 654.0, 656.0, 656.0, 656.0, 656.0, 655.0, 654.0, 654.0, 655.0, 654.0, 653.0, 653.0, 652.0, 652.0, 654.0, 655.0, 655.0, 655.0, 655.0, 654.0, 654.0, 654.0, 655.0, 655.0, 655.0, 654.0, 653.0, 654.0, 654.0, 654.0, 654.0, 653.0, 652.0, 653.0, 653.0, 654.0, 655.0, 657.0, 655.0, 655.0, 655.0, 653.0, 653.0, 653.0, 653.0, 654.0, 654.0, 653.0, 653.0, 655.0, 655.0, 653.0, 653.0, 655.0, 654.0, 653.0, 653.0, 653.0, 654.0, 655.0, 655.0, 654.0, 655.0, 654.0, 653.0, 653.0, 654.0, 654.0, 652.0, 655.0, 654.0, 652.0, 651.0, 651.0, 651.0, 651.0, 651.0, 652.0, 654.0, 654.0, 653.0, 654.0, 654.0, 654.0, 653.0, 655.0, 655.0, 655.0, 655.0, 654.0, 654.0, 653.0, 655.0, 655.0, 654.0, 654.0, 654.0, 654.0, 653.0, 654.0, 655.0, 654.0, 654.0, 655.0, 656.0, 653.0, 654.0, 654.0, 653.0, 653.0, 652.0, 652.0, 654.0, 654.0, 653.0, 652.0, 653.0, 651.0, 651.0, 652.0, 652.0, 652.0, 653.0, 654.0, 654.0, 654.0, 656.0, 654.0, 652.0, 653.0, 654.0, 654.0, 654.0, 654.0, 654.0, 654.0, 655.0, 653.0, 653.0, 653.0, 653.0, 654.0, 652.0, 653.0, 654.0, 653.0, 653.0, 654.0],
